0.0,0.0,0.0,0.0
0.0,0.0,0.0,0.0
0.0,0.0,0.0,0.0
0.0,0.0,0.0,0.0
0.0,0.0,0.0,0.0
0.0,0.0,0.0,0.0
0.0,0.0,0.0,0.0
0.0,0.0,0.0,0.0
0.0,0.0,0.0,0.0
0.0,0.0,0.0,0.0
0.0,0.0,0.0,0.0
0.0,0.0,0.0,0.0
0.0,0.0,0.0,0.0
0.0,0.0,0.0,0.0
0.0,0.0,0.0,0.0
0.0,0.0,0.0,0.0
0.0,0.0,0.0,0.0
0.0,0.0,0.0,0.0
0.0,0.0,0.0,0.0
0.0,0.0,0.0,0.0
0.0,0.0,0.0,0.0
0.0,0.0,0.0,0.0
0.0,0.0,0.0,0.0
0.0,0.0,0.0,0.0
0.0,0.0,0.0,0.0
0.0,0.0,0.0,0.0
0.0,0.0,0.0,0.0
-3.359552283654921e-05,5.139828135725111e-05,-1.5505625924561173e-05,0.0
-4.6571622078772634e-05,5.9148129366803914e-05,-1.61984335136367e-05,0.0
-4.660066406358965e-05,3.902402022504248e-05,-7.483076387870824e-06,0.0
-6.152145215310156e-05,5.031783803133294e-05,-1.7026364730554633e-05,0.0
-5.2995485020801425e-05,4.552809696178883e-05,-2.9194716262281872e-05,0.0
-4.8827019782038406e-05,7.162348629208282e-05,-4.252616781741381e-05,0.0
-3.705251947394572e-05,8.467278530588374e-05,-4.2060859414050356e-05,0.0
-3.9320588257396594e-05,9.361660340800881e-05,-3.950482641812414e-05,0.0
-4.240136331645772e-05,8.216239075409248e-05,-3.150710472255014e-05,0.0
-4.4840886403108016e-05,7.030423148535192e-05,-2.770747960312292e-05,0.0
-4.358142541605048e-05,5.4278811148833483e-05,-2.983134618261829e-05,0.0
-4.430773333297111e-05,3.6316800105851144e-05,-3.385248055565171e-05,0.0
-4.264667222741991e-05,1.6095233149826527e-05,-3.598190232878551e-05,0.0
-3.714556078193709e-05,4.5029537432128564e-07,-3.5751054383581504e-05,0.0
-3.5434652090771124e-05,-2.282361947436584e-06,-3.9256290619960055e-05,0.0
-3.469037255854346e-05,-2.075816610158654e-06,-4.2373358155600727e-05,0.0
-3.690889207064174e-05,7.0392507041106e-06,-4.217569949105382e-05,0.0
-3.695578925544396e-05,1.5599094695062377e-05,-3.667163764475845e-05,0.0
-3.9901427953736857e-05,3.19936552841682e-05,-3.462742461124435e-05,0.0
-3.9232148992596194e-05,4.310300209908746e-05,-3.60568446922116e-05,0.0
-4.278231062926352e-05,5.363903255783953e-05,-4.1610685002524406e-05,0.0
-4.309613723307848e-05,5.4283937060972676e-05,-4.057049591210671e-05,0.0
-4.038220868096687e-05,5.766604590462521e-05,-3.123329224763438e-05,0.0
-3.437491614022292e-05,5.378821515478194e-05,-1.7767913959687576e-05,0.0
-3.900279989466071e-05,5.033253182773478e-05,-1.4050817298993934e-05,0.0
-4.6169883717084303e-05,3.806387758231722e-05,-2.0114564904361032e-05,0.0
-5.362774754757993e-05,2.97150054393569e-05,-3.5139073588652536e-05,0.0
-5.2028324716957286e-05,2.409531043667812e-05,-4.6440825826721266e-05,0.0
-4.6207882405724376e-05,2.7590700483415276e-05,-4.408776294440031e-05,0.0
-4.210870247334242e-05,3.465886402409524e-05,-3.665240001282655e-05,0.0
-4.490865831030533e-05,3.8982343539828435e-05,-2.8090156774851494e-05,0.0
-4.612012708093971e-05,3.525323700159788e-05,-1.142764540418284e-05,0.0
-4.699933197116479e-05,3.095570355071686e-05,1.1513589925016277e-05,0.0
-5.106444223201834e-05,3.475942139630206e-05,2.753872104221955e-05,0.0
-5.41248700756114e-05,4.532296588877216e-05,3.4163560485467315e-05,0.0
-5.477161903399974e-05,5.096172753837891e-05,3.605394886108115e-05,0.0
-5.537142715184018e-05,4.9482281610835344e-05,2.8399186703609303e-05,0.0
-5.681355105480179e-05,4.988106957171112e-05,5.386435077525675e-06,0.0
-5.6677763495827094e-05,4.681024074670859e-05,-2.3173115550889634e-05,0.0
-5.506707020686008e-05,3.898478462360799e-05,-3.755514626391232e-05,0.0
-5.1373754104133695e-05,3.20826075039804e-05,-3.0653482099296525e-05,0.0
-5.288306419970468e-05,3.5613928048405796e-05,-1.9002209228347056e-05,0.0
-5.6720731663517654e-05,4.500981594901532e-05,-1.6641526599414647e-05,0.0
-5.855292693013325e-05,5.8862147852778435e-05,-2.204853080911562e-05,0.0
-5.460250031319447e-05,6.349763862090185e-05,-2.6651923690224066e-05,0.0
-5.2028724894626066e-05,5.508109097718261e-05,-3.421188011998311e-05,0.0
-5.193932156544179e-05,3.724525231518783e-05,-4.725396865978837e-05,0.0
-5.817009150632657e-05,2.822578971972689e-05,-5.593591049546376e-05,0.0
-6.282433605520055e-05,2.6671006708056666e-05,-4.5489465264836326e-05,0.0
-6.093165575293824e-05,2.1132645997568034e-05,-1.449596766178729e-05,0.0
-5.60306289116852e-05,1.3225695511209778e-05,2.611345007608179e-05,0.0
-5.6464581575710326e-05,1.9143410099786706e-05,5.319205956766382e-05,0.0
-5.682960181729868e-05,2.2654001440969296e-05,5.0674650992732495e-05,0.0
-5.914795110584237e-05,1.829544453357812e-05,1.2954758858541027e-05,0.0
-5.8212815929437056e-05,1.3877536730433349e-05,-4.8885711294133216e-05,2.584270987426862e-05
-5.3745086916023865e-05,1.5379453543573618e-05,-0.00010047508112620562,3.529258174239658e-05
-5.0829414249164984e-05,1.9452530978014693e-05,-0.0001313032116740942,3.0588209483539686e-05
-4.991747482563369e-05,1.9422746845521033e-05,-0.00013882864732295275,3.164217196172103e-05
-5.3078932978678495e-05,1.20327476906823e-05,-0.0001105838964576833,1.9712761059054174e-05
-5.895276626688428e-05,7.6011228884453885e-06,-4.3126816308358684e-05,1.9687950043589808e-05
-6.084378401283175e-05,6.453933110606158e-06,4.799757880391553e-05,1.1691089639498387e-05
-5.9929803683189675e-05,-3.252818814303282e-08,0.00012121482723159716,9.175209925160743e-06
-6.597113679163158e-05,-9.617372597858775e-06,0.00013939902419224381,8.472281479043886e-06
-7.200380059657618e-05,-5.5291279750235844e-06,8.730205445317551e-05,1.5480325600947253e-05
-6.769184983568266e-05,1.2806958693545312e-05,-1.630838778510224e-05,2.374551877437625e-05
-5.74453042645473e-05,3.225191539968364e-05,-0.00012780478573404253,3.5372857382753864e-05
-5.2599138143705204e-05,4.536537380772643e-05,-0.00017895516066346318,4.74219887109939e-05
-5.246420550975017e-05,4.779324808623642e-05,-0.00014050699246581644,4.8245037760352716e-05
-5.3998868679627776e-05,4.338608050602488e-05,-5.6668031902518123e-05,3.6776640627067536e-05
-5.792580850538798e-05,3.542528429534286e-05,1.0152286449738313e-05,1.7856344129540958e-05
-6.24041713308543e-05,2.9951635951874778e-05,3.427630144869909e-05,2.305690031789709e-06
-6.269881851039827e-05,2.6682209863793105e-05,2.8565453249029815e-05,-1.0398134691058658e-05
-5.9262813010718673e-05,2.5674980861367658e-05,1.3021316590311471e-05,-1.0865815056604333e-05
-5.531924034585245e-05,2.5760980861377902e-05,8.912584235076793e-07,-2.0738475541293155e-06
-5.204802437219769e-05,2.3854514438426122e-05,-8.630836418888066e-06,1.5415325833600946e-05
-4.422874189913273e-05,1.5979330783011392e-05,-1.560681630508043e-05,2.6416615583002567e-05
-3.374227890162729e-05,1.1043925951526035e-05,-1.8463595552020706e-05,3.3685315429465845e-05
-2.9575357984867878e-05,1.4724003449373413e-05,-1.834963586588856e-05,3.448171628406271e-05
-3.2262003514915705e-05,2.9424578315229155e-05,-2.2677397282677703e-05,3.240336445742287e-05
-3.289879168733023e-05,4.233009531162679e-05,-2.917144593084231e-05,2.9838032787665725e-05
-3.3531654480611905e-05,4.788409569300711e-05,-3.4545773814897984e-05,3.0849962058709934e-05
-4.225375596433878e-05,5.241689723334275e-05,-4.0673359762877226e-05,2.828492688422557e-05
-5.194799086893909e-05,6.158371979836375e-05,-4.348002767073922e-05,2.6457120839040726e-05
-5.1935323426732793e-05,7.061500946292654e-05,-4.574116610456258e-05,2.737076283665374e-05
-4.689608249464072e-05,7.60358598199673e-05,-5.5870328651508316e-05,2.7880974812433124e-05
-4.433965659700334e-05,7.924101373646408e-05,-6.823460716987029e-05,2.4112621758831665e-05
-4.209855251247063e-05,7.625643775099888e-05,-7.4300158303231e-05,1.8755132259684615e-05
-4.154138150624931e-05,6.311229662969708e-05,-7.310610817512497e-05,1.732714918034617e-05
-4.600147076416761e-05,5.0187099986942485e-05,-7.12348337401636e-05,1.8846776583814062e-05
-5.1785576943075284e-05,4.580807581078261e-05,-6.858434790046886e-05,1.7059530364349484e-05
-5.4573294619331136e-05,4.2226431105518714e-05,-6.415398820536211e-05,1.4673027180833742e-05
-5.1729308324866e-05,3.112638296443038e-05,-5.96602403675206e-05,1.439622701582266e-05
-4.453634028322995e-05,1.7777618268155493e-05,-5.279670949676074e-05,1.4977279533923138e-05
-3.7466688809217885e-05,1.0583949006104376e-05,-3.4945773222716525e-05,1.7555965314386413e-05
-3.6004385037813336e-05,9.791631782718468e-06,-8.919699212128762e-06,1.864951082097832e-05
-4.052825170219876e-05,1.5957775758579373e-05,1.1991181963821873e-05,1.8533613911131397e-05
-4.7017554607009515e-05,2.517795655876398e-05,1.967379284906201e-05,1.906164106912911e-05
-5.126763426233083e-05,3.1283685530070215e-05,1.1866519344039261e-05,2.363237399549689e-05
-5.275541843730025e-05,2.8929394829901867e-05,-5.03168939758325e-06,2.9592027203761972e-05
-4.933201489620842e-05,2.2946544049773365e-05,-1.782140498107765e-05,3.540867692208849e-05
-4.3215015466557816e-05,2.4186034352169372e-05,-2.23285624088021e-05,3.702933099702932e-05
-4.035184610984288e-05,3.695866689668037e-05,-2.366865737712942e-05,3.7188878195593134e-05
-4.520151560427621e-05,5.229378439253196e-05,-2.026959919021465e-05,3.631899744505063e-05
-5.522540959645994e-05,6.239071808522567e-05,-1.6373533071600832e-05,3.8754642446292564e-05
-5.655909626511857e-05,6.119974568719044e-05,-1.4853308130113874e-05,3.9442187699023634e-05
-5.1870687457267195e-05,4.501609146245755e-05,-1.3979611139802728e-05,3.431672666920349e-05
-5.2205592510290444e-05,2.5831306629697792e-05,-1.967198659258429e-05,2.7533711545402184e-05
-5.6884349760366604e-05,1.619073373149149e-05,-2.8339394702925347e-05,2.5342802473460324e-05
-5.640258314087987e-05,1.0549167200224474e-05,-2.7556068744161166e-05,2.7331292585586198e-05
-5.074016735306941e-05,4.683249699155567e-06,-2.328453956579324e-05,2.7206753657083027e-05
-4.9411417421652004e-05,-1.8856009091905435e-06,-2.2336336769512855e-05,2.3868229618528858e-05
-4.734040703624487e-05,-1.4700904102937784e-05,-2.315389792784117e-05,2.0415855033206753e-05
-4.5880511606810614e-05,-2.367326851526741e-05,-2.310382842551917e-05,1.4182445738697425e-05
-4.6660483349114656e-05,-1.862349199655e-05,-2.5545412427163683e-05,1.256365703738993e-05
-4.6309269237099215e-05,-8.702842933416832e-06,-2.941752791230101e-05,1.468080790800741e-05
-4.6846205805195495e-05,-1.5967179933795705e-06,-2.8060700060450472e-05,1.9132106899633072e-05
-4.634271317627281e-05,1.2001804634564905e-06,-2.4036782633629628e-05,2.4204420697060414e-05
-4.560962042887695e-05,3.820149231614778e-06,-2.4598462914582342e-05,2.5299916160292923e-05
-4.565296694636345e-05,9.782630513655022e-06,-2.917485289799515e-05,2.1887321054236963e-05
-4.058792183059268e-05,2.0381417925818823e-05,-3.31541414198e-05,2.007823968597222e-05
-2.980075078085065e-05,3.0413932108785957e-05,-3.3428743336116895e-05,2.280652552144602e-05
-2.442552795400843e-05,3.3349449950037524e-05,-3.0472236176137812e-05,2.5979994461522438e-05
-2.6627551051205955e-05,3.167818795191124e-05,-2.6802346837939695e-05,2.617921563796699e-05
-3.216180994058959e-05,3.243648097850382e-05,-2.3381391656585038e-05,2.3677703211433254e-05
-3.788635149248876e-05,3.549131361069158e-05,-1.991728822758887e-05,2.3556100131827407e-05
-4.3561078200582415e-05,3.834227754850872e-05,-1.872093889687676e-05,2.548118027334567e-05
-4.794904452865012e-05,4.097115743206814e-05,-1.9296174286864698e-05,2.7281419534119777e-05
-4.914079181617126e-05,4.0649541915627196e-05,-1.8897522750194184e-05,2.801178015943151e-05
-4.572203033603728e-05,3.8385602238122374e-05,-2.0301260519772768e-05,2.944518746517133e-05
-4.109182191314176e-05,3.62758910341654e-05,-2.5006998839671724e-05,2.9034938052063808e-05
-3.982953785452992e-05,3.414065213291906e-05,-2.9412278308882378e-05,2.6044690457638353e-05
-4.301247463445179e-05,3.49929032381624e-05,-3.0728111596545205e-05,2.279698492202442e-05
-4.839073881157674e-05,3.6304289096733555e-05,-3.100347748841159e-05,2.5407367502339184e-05
-5.2200386562617496e-05,3.1286988814827055e-05,-3.340167677379213e-05,3.0076174880377948e-05
-5.688660894520581e-05,2.585929905762896e-05,-3.433349047554657e-05,3.37620876962319e-05
-5.7264234783360735e-05,2.3209981009131297e-05,-3.010133332281839e-05,3.3453387004556134e-05
-4.9932656111195683e-05,1.869595143944025e-05,-2.249040517199319e-05,2.973026676045265e-05
-4.531254671746865e-05,1.8025582903646864e-05,-1.4491457477561198e-05,2.6250283553963527e-05
-4.960232399753295e-05,2.2431864636018872e-05,-1.2142413652327377e-05,2.549674354668241e-05
-5.424912887974642e-05,2.542684342188295e-05,-1.9725077436305583e-05,2.6055855414597318e-05
-5.926742960582487e-05,3.062856194446795e-05,-3.199895945726894e-05,2.5021960027515888e-05
-6.425226456485689e-05,3.691090387292206e-05,-3.9545575418742374e-05,2.21479385800194e-05
-6.325159483822063e-05,4.303480818634853e-05,-4.831067053601146e-05,2.018581290030852e-05
-6.407902401406318e-05,4.344800254330039e-05,-5.762375076301396e-05,2.0642622985178605e-05
-6.176043825689703e-05,3.715113052749075e-05,-6.052403477951884e-05,2.1178122551646084e-05
-5.7562399888411164e-05,2.5091854695347138e-05,-5.176983177079819e-05,2.1130867025931366e-05
-5.993902595946565e-05,1.5183125469775405e-05,-3.919888331438415e-05,2.0476674762903713e-05
-6.259152723941952e-05,1.2540512216219213e-05,-2.7803920602309518e-05,1.946932025020942e-05
-5.75383091927506e-05,1.4681910215585958e-05,-1.921837611007504e-05,1.884093762782868e-05
-4.9904811021406204e-05,2.0920822862535715e-05,-1.4159684724290855e-05,1.9578752471716143e-05
-4.945098771713674e-05,2.752488580881618e-05,-1.0520277101022657e-05,2.2620388335781172e-05
-5.436171340988949e-05,3.3660486224107444e-05,-1.0416251825517975e-05,2.536809552111663e-05
-5.733321813750081e-05,3.9703249058220536e-05,-1.103928116208408e-05,2.6066512873512693e-05
-5.4772139264969155e-05,4.942703526467085e-05,-1.0258957445330452e-05,2.8024729544995353e-05
-5.198961662244983e-05,6.009743083268404e-05,-9.029440661834087e-06,3.245841071475297e-05
-5.1590061048045754e-05,6.867651973152533e-05,-1.3333617971511558e-05,3.505510539980605e-05
-5.19008026458323e-05,7.395478314720094e-05,-2.2383917894330807e-05,3.403074515517801e-05
-4.7773701226105914e-05,7.838947931304574e-05,-2.79928972304333e-05,3.2767278753453866e-05
-4.03054291382432e-05,7.277674012584612e-05,-2.3494078050134704e-05,3.0800951208220795e-05
-3.4760578273562714e-05,5.094214793643914e-05,-1.2511687600635923e-05,2.5040533728315495e-05
-3.381530405022204e-05,2.348723864997737e-05,-7.874660695961211e-06,1.708424861135427e-05
-3.46043125318829e-05,7.92348691902589e-06,-1.3192443475418258e-05,1.0913765436271206e-05
-3.455562182352878e-05,1.5090430451891734e-06,-1.8521706806495786e-05,6.8172284954926e-06
-3.514647687552497e-05,-1.964561988643254e-06,-1.8535731214797124e-05,6.346903319354169e-06
-4.009676194982603e-05,7.93987146607833e-06,-1.802786937332712e-05,9.34423860599054e-06
-5.2832954679615796e-05,2.1239275156403892e-05,-2.522298564144876e-05,1.7303795175394043e-05
-6.441828736569732e-05,3.297712100902572e-05,-2.8756530809914693e-05,2.385125662840437e-05
-6.265458068810403e-05,4.876466846326366e-05,-2.542018955864478e-05,2.1801119146402925e-05
-5.3504740208154544e-05,6.0773738368880004e-05,-2.3060349121806212e-05,1.7926095097209327e-05
-4.5841894461773336e-05,6.052710523363203e-05,-2.612926618894562e-05,1.7810431018006057e-05
-4.184312274446711e-05,5.500490078702569e-05,-2.883730485336855e-05,1.9153234461555257e-05
-4.294116661185399e-05,5.324754602042958e-05,-3.0470369893009774e-05,1.756382334860973e-05
-4.451328641152941e-05,5.3007755923317745e-05,-3.368319448782131e-05,1.4518850548483897e-05
-4.5518714614445344e-05,4.895524398307316e-05,-3.368878606124781e-05,1.589500425325241e-05
-4.726406768895686e-05,4.697467738878913e-05,-3.109557292191312e-05,1.8419637854094617e-05
-4.957839701091871e-05,5.3425119403982535e-05,-3.0171369871823117e-05,1.988508302019909e-05
-5.1643623010022566e-05,5.418865475803614e-05,-3.014094545505941e-05,2.177471287723165e-05
-5.2500767196761444e-05,3.399716297280975e-05,-2.992454574268777e-05,2.325075001863297e-05
-5.070932820672169e-05,-2.1016276718910376e-07,-2.9714376069023274e-05,2.2246276785153896e-05
-4.5427783334162086e-05,-1.939433605002705e-05,-2.839025364664849e-05,2.0220546502969228e-05
-3.765486690099351e-05,-5.063662229076726e-06,-2.721471719269175e-05,2.1936461052973755e-05
-3.678573921206407e-05,3.081612157984637e-05,-2.403776306891814e-05,2.4350747480639257e-05
-4.551947858999483e-05,6.180539639899507e-05,-2.296278762514703e-05,2.1608639144687913e-05
-5.237240111455321e-05,7.326930790441111e-05,-2.5764982638065703e-05,1.7448814105591737e-05
-5.075186345493421e-05,7.369249942712486e-05,-2.798002606141381e-05,1.7981965356739238e-05
-4.697836993727833e-05,7.454230217263103e-05,-2.460422729200218e-05,1.8511358575779013e-05
-4.8664689529687166e-05,7.237421959871426e-05,-2.0325722289271653e-05,1.7754935470293276e-05
-5.113344013807364e-05,6.107129593146965e-05,-1.688241354713682e-05,1.7817485058913007e-05
-4.937195262755267e-05,3.6486606404650956e-05,-1.4525988262903411e-05,1.7776346794562414e-05
-4.870880002272315e-05,-7.431195854223915e-07,-1.5499495930271223e-05,1.7225271221832372e-05
-4.843414353672415e-05,-2.478690294083208e-05,-2.127193693013396e-05,1.648455327085685e-05
-4.715461182058789e-05,-2.3046070054988377e-05,-2.7986317945760675e-05,1.7767271856428124e-05
-5.2627496188506484e-05,-1.6803327525849454e-05,-2.9386379537754692e-05,2.112264519382734e-05
-5.843672624905594e-05,-2.1253244995023124e-05,-2.681320984265767e-05,2.444730853312649e-05
-5.968805999145843e-05,-2.541789763199631e-05,-2.632830546644982e-05,2.717933057283517e-05
-5.797067569801584e-05,-1.5313178664655425e-05,-2.9525119316531345e-05,2.7945981855737045e-05
-5.454896381706931e-05,9.181758855447697e-07,-3.277443101978861e-05,2.7796784706879407e-05
-4.808376615983434e-05,1.0389590897830203e-05,-3.2143503631232306e-05,2.8722788556478918e-05
-4.161612378084101e-05,7.724655006313697e-06,-2.940087506431155e-05,3.018203642568551e-05
-3.972611375502311e-05,2.4143168957380112e-06,-2.962876169476658e-05,2.9655024263774976e-05
-4.067480767844245e-05,3.731431888809311e-06,-3.214668686268851e-05,2.99843759421492e-05
-4.5320655772229657e-05,1.3658950592798647e-05,-3.417121843085624e-05,3.373294021002948e-05
-4.8092555516632274e-05,2.6794263249030337e-05,-3.615863170125522e-05,3.6453107895795256e-05
-4.421623452799395e-05,3.535911673679948e-05,-3.77981377823744e-05,3.812981231021695e-05
-3.486253262963146e-05,3.607419057516381e-05,-3.859011849272065e-05,3.985812872997485e-05
-2.9647928386111744e-05,3.377657412784174e-05,-3.968051532865502e-05,3.931552419089712e-05
-3.395560270291753e-05,3.510143869789317e-05,-4.1170969780068845e-05,3.579491749405861e-05
-4.0772443753667176e-05,4.0296527004102245e-05,-3.792050119955093e-05,3.5800752812065184e-05
-4.0902687032939866e-05,4.553068720269948e-05,-2.797543493215926e-05,4.0204722608905286e-05
-3.640820796135813e-05,4.2575757106533274e-05,-1.7741407646099105e-05,4.010673001175746e-05
-3.270007437095046e-05,3.639412170741707e-05,-1.16406181405182e-05,3.217130870325491e-05
-3.340598414069973e-05,3.6368874134495854e-05,-8.047180926951114e-06,2.3354703444056213e-05
-4.1486007830826566e-05,4.447550600161776e-05,-2.4562041289755143e-07,1.5009639355412219e-05
-5.2632221922976896e-05,5.503734064404853e-05,1.4161388207867276e-05,5.1623969739011955e-06
-5.949323531240225e-05,6.214217137312517e-05,2.6740501198219135e-05,3.449415544309886e-06
-6.278145883698016e-05,6.581027992069721e-05,2.819859582814388e-05,1.388150758430129e-05
-6.540555477840826e-05,6.0953952925046906e-05,1.150159278040519e-05,2.9356739105423912e-05
-5.942329516983591e-05,4.463739605853334e-05,-1.5124225683393888e-05,4.041128704557195e-05
-5.056217560195364e-05,2.8792908778996207e-05,-3.1577434128848836e-05,4.324079054640606e-05
-4.877820174442604e-05,2.526951902837027e-05,-2.9756143703707494e-05,3.8362359191523865e-05
-5.555887400987558e-05,2.860315544239711e-05,-2.005104579438921e-05,3.0298215278889984e-05
-6.396430399036035e-05,2.843627953552641e-05,-1.5435947716468945e-05,2.6396744942758232e-05
-6.11481664236635e-05,2.8212301913299598e-05,-1.2226290891703684e-05,2.677149859664496e-05
-5.553234223043546e-05,2.943865183624439e-05,-1.651740058150608e-05,2.7250809580436908e-05
-5.247853550827131e-05,3.23904023389332e-05,-3.3016007364494726e-05,2.7547081117518246e-05
-4.908809205517173e-05,3.5484597901813686e-05,-5.167062772670761e-05,3.137698513455689e-05
-4.823865310754627e-05,4.283299858798273e-05,-6.0087942983955145e-05,3.513689080136828e-05
-4.968864959664643e-05,5.326216705725528e-05,-5.8405104937264696e-05,3.380330599611625e-05
-5.1372502639424056e-05,6.131006375653669e-05,-3.613541412050836e-05,2.9983424610691145e-05
-5.184512338018976e-05,6.713777111144736e-05,1.5626630556653254e-05,2.8140060749137774e-05
-5.00808673677966e-05,7.114440813893452e-05,7.00371092534624e-05,2.9650987926288508e-05
-4.603277557180263e-05,6.696252239635214e-05,8.535363303963095e-05,3.1681771361036226e-05
-4.34020439570304e-05,5.336041795089841e-05,4.919969433103688e-05,3.139732143608853e-05
-4.502599767874926e-05,3.941956674680114e-05,-1.8530246961745434e-05,2.91129090328468e-05
-5.0933787861140445e-05,2.7163887352799065e-05,-9.048792708199471e-05,2.941577258752659e-05
-5.656800567521714e-05,1.562461329740472e-05,-0.00015001733845565468,3.2878258934943005e-05
-5.691974001820199e-05,1.1968036233156454e-05,-0.00018920844013337046,3.532446862664074e-05
-5.072827116237022e-05,2.0994604710722342e-05,-0.00018051530059892684,3.2037380151450634e-05
-4.213622014503926e-05,3.4305689041502774e-05,-0.00011559302947716787,2.5604949769331142e-05
-4.029870615340769e-05,4.260541754774749e-05,-4.779905793839134e-05,2.101599602610804e-05
-4.95215535920579e-05,4.209641338093206e-05,-1.9225652067689225e-05,1.713098208711017e-05
-5.9473662986420095e-05,4.06467224820517e-05,-1.9768513084272854e-05,9.974763088393956e-06
-5.905337820877321e-05,4.5904751459602267e-05,-3.386631578905508e-05,8.035215159907239e-07
-5.126833275426179e-05,5.969225458102301e-05,-3.638559064711444e-05,-1.0693680451367982e-05
-4.797933070221916e-05,7.329336949624121e-05,-2.135252179868985e-05,-2.293506076966878e-05
-5.078868707641959e-05,7.885496597737074e-05,-6.6934817368746735e-06,-2.152372144337278e-05
-5.389372745412402e-05,7.149125303840265e-05,6.576677606062731e-06,-4.000796252512373e-06
-5.471616896102205e-05,5.291321940603666e-05,2.6427516786498018e-05,1.3937672520114575e-05
-5.5368280300172046e-05,3.778832615353167e-05,3.7057779991300777e-05,1.9714192603714764e-05
-5.8305431593908e-05,3.892239328706637e-05,2.7049714844906703e-05,1.8703274690778926e-05
-6.507427315227687e-05,4.9620408390183e-05,8.476447874272708e-06,1.8481703591533005e-05
-6.99248630553484e-05,5.707790478481911e-05,6.662698524451116e-06,2.2150279619381763e-05
-6.435812974814326e-05,4.963806350133382e-05,2.586111986602191e-05,2.4669083359185606e-05
-5.6116045016096905e-05,3.87801555916667e-05,4.139593875152059e-05,2.7313522878102958e-05
-5.302048521116376e-05,3.604255471145734e-05,3.818166078417562e-05,3.1390325602842495e-05
-5.4014257329981774e-05,3.6009078030474484e-05,1.6972773664747365e-05,3.299329910078086e-05
-5.60903936275281e-05,3.316172296763398e-05,-1.1655208254524041e-05,3.060027665924281e-05
-5.836393029312603e-05,2.7446227250038646e-05,-3.948204903281294e-05,2.51239998760866e-05
-5.946925011812709e-05,2.051979026873596e-05,-6.628754636039957e-05,2.158388633688446e-05
-5.748839976149611e-05,1.1850519513245672e-05,-9.124603820964694e-05,2.187337668146938e-05
-5.313202564138919e-05,8.836841516313143e-06,-9.911029337672517e-05,2.3620308638783172e-05
-4.838218228542246e-05,1.49904954014346e-05,-7.93615763541311e-05,2.0664179828600027e-05
-4.3728738091886044e-05,2.7016965759685263e-05,-4.782162432093173e-05,1.5061210433486849e-05
-4.3655869376379997e-05,3.395616658963263e-05,-2.8472357371356338e-05,1.1748856195481494e-05
-5.012794281356037e-05,3.405591269256547e-05,-2.4791983378236182e-05,1.2389908988552634e-05
-5.370087819756009e-05,3.3781736419769004e-05,-2.711072374950163e-05,1.4763741091883276e-05
-5.4532378271687776e-05,3.4985565434908494e-05,-2.933037467300892e-05,1.4963966350478586e-05
-5.7217348512494937e-05,2.8831664167228155e-05,-3.309329258627258e-05,1.3904378647566773e-05
-5.670809332514182e-05,1.7514777937321924e-05,-3.277062569395639e-05,1.3892476999899372e-05
-5.363118543755263e-05,1.1790440112235956e-05,-2.8956663300050423e-05,1.3038233191764448e-05
-4.7994784836191684e-05,7.120575446606381e-06,-2.8506121452664956e-05,1.600010000402108e-05
-4.732158413389698e-05,3.815071067947429e-06,-3.464389737928286e-05,2.181639865739271e-05
-5.0152786570833996e-05,6.679921170871239e-06,-4.151184475631453e-05,2.602576023491565e-05
-4.7467943659285083e-05,8.68359438754851e-06,-4.0124403312802315e-05,2.8695356377284043e-05
-4.716764306067489e-05,1.208852063427912e-05,-3.624738019425422e-05,3.080066744587384e-05
-5.070829138276167e-05,2.038162710960023e-05,-3.130822369712405e-05,3.129003380308859e-05
-5.4741605708841234e-05,2.7679863705998287e-05,-2.673752896953374e-05,2.8470862162066624e-05
-5.46934679732658e-05,2.705724909901619e-05,-2.5444478524150327e-05,2.5729048502398655e-05
-5.4124611779116094e-05,1.9408496882533655e-05,-2.5158458811347373e-05,2.359892641834449e-05
-5.623349716188386e-05,6.1571417973027565e-06,-2.1525280317291617e-05,2.0632696760003455e-05
-5.739178232033737e-05,-2.447713541187113e-06,-1.7721969925332814e-05,1.856628296081908e-05
-5.742203939007595e-05,2.9612979233206715e-06,-1.9581360902520828e-05,1.9467366655590013e-05
-5.514971417142078e-05,1.4652103345724754e-05,-2.4873772417777218e-05,2.3117101591196842e-05
-4.869149051955901e-05,2.2210058887139894e-05,-2.7440355552244e-05,2.7694293748936616e-05
-4.0917009755503386e-05,2.4727256459300406e-05,-2.517955181247089e-05,3.292131077614613e-05
-3.5981320252176374e-05,3.0175975552992895e-05,-2.1249705241643824e-05,3.4227770811412483e-05
-3.693098551593721e-05,4.2016239603981376e-05,-1.8738097423920408e-05,2.9929380616522394e-05
-4.509348946157843e-05,5.527500979951583e-05,-2.184148434025701e-05,2.596373451524414e-05
-5.340083225746639e-05,5.822164530400187e-05,-2.9427554181893356e-05,2.3941733161336742e-05
-5.542220242205076e-05,4.833604907616973e-05,-3.5524513805285096e-05,2.2776117475586943e-05
-5.2769846661249176e-05,3.598816692829132e-05,-3.810792259173468e-05,2.3160657292464748e-05
-4.983740655006841e-05,2.908343230956234e-05,-3.702194590005092e-05,2.404899350949563e-05
-4.894916855846532e-05,1.9606382920756005e-05,-3.447330527706072e-05,2.4262024453491904e-05
-5.225847053225152e-05,8.759422598814126e-06,-3.370644844835624e-05,2.4105595002765767e-05
-5.597796189249493e-05,7.302815447474131e-06,-3.142290734103881e-05,2.4465814931318164e-05
-5.098951805848628e-05,1.3245544323581271e-05,-2.5586587071302347e-05,2.6741236069938168e-05
-4.2328028939664364e-05,2.1382720660767518e-05,-2.1717482013627887e-05,3.0076107577770017e-05
-4.279568020137958e-05,2.4822564228088595e-05,-2.4768658477114514e-05,2.864962152671069e-05
-4.2909145122393966e-05,1.4289338650996797e-05,-2.9681934393011034e-05,2.2503314539790154e-05
-3.836357791442424e-05,4.096295015187934e-06,-3.0469995181192644e-05,2.125988066836726e-05
-3.584167279768735e-05,6.199938979989383e-06,-3.1792365916771814e-05,2.0631956431316212e-05
-3.969532190239988e-05,1.2257498383405618e-05,-3.710146847879514e-05,2.0651614249800332e-05
-4.652739880839363e-05,1.545727536722552e-05,-4.147901927353814e-05,2.3487804355681874e-05
-4.888392868451774e-05,1.657635766605381e-05,-4.145620187046006e-05,2.5794224711717106e-05
-4.6496392315020785e-05,2.4938810383901e-05,-3.547968663042411e-05,2.7649508410831913e-05
-3.820574056589976e-05,3.780003316933289e-05,-2.7424326617619954e-05,3.068480873480439e-05
-3.294490306871012e-05,4.278659980627708e-05,-2.1121761164977215e-05,3.30929433403071e-05
-3.259479854023084e-05,3.672174352686852e-05,-2.0905043129459955e-05,3.572042260202579e-05
-3.278191070421599e-05,2.833915095834527e-05,-2.1937870769761503e-05,4.007436291431077e-05
-3.0085051548667252e-05,2.425094680802431e-05,-1.718290150165558e-05,4.1979852539952844e-05
-2.835198574757669e-05,2.4321234377566725e-05,-1.0508003470022231e-05,3.684882176457904e-05
-3.31132578139659e-05,3.111145633738488e-05,-6.439866410801187e-06,2.875649261113722e-05
-4.322760651120916e-05,4.503325544646941e-05,-5.783855158369988e-06,2.730386950133834e-05
-4.951259688823484e-05,6.0701273469021544e-05,-7.038594503683271e-06,3.1378152925753966e-05
-4.928072667098604e-05,7.074665336403996e-05,-1.2103306289645843e-05,3.2494532206328586e-05
-4.834138962905854e-05,7.170502794906497e-05,-1.8411397832096554e-05,2.804231371555943e-05
-4.7031764552230015e-05,6.813045911258087e-05,-2.2253474526223727e-05,2.2284602891886607e-05
-4.7893223381834105e-05,6.631189899053425e-05,-2.3754122594255023e-05,1.8051128790830262e-05
-4.920467108604498e-05,6.419800774892792e-05,-2.534168197598774e-05,1.612910818948876e-05
-4.876156890532002e-05,5.547267574002035e-05,-2.543202936067246e-05,1.4188667591952253e-05
-4.812227780348621e-05,4.2573028622427955e-05,-2.1817930246470496e-05,1.4620847650803626e-05
-4.536073174676858e-05,3.6074459785595536e-05,-1.8251324945595115e-05,1.8621360140969045e-05
-4.363892730907537e-05,3.729908712557517e-05,-1.9524977687979117e-05,2.1247231416055e-05
-4.3643685785355046e-05,4.034824451082386e-05,-2.2550018911715597e-05,1.7322992789559066e-05
-4.1294384573120624e-05,4.200055991532281e-05,-2.477877751516644e-05,1.4028795703779906e-05
-3.907323844032362e-05,4.1376617446076125e-05,-2.4627539460198022e-05,1.830585279094521e-05
-3.8311532989609987e-05,3.433021993259899e-05,-2.626786044856999e-05,2.1779300368507393e-05
-4.497179907048121e-05,2.2263899154495448e-05,-3.203820233466104e-05,1.7069278328563087e-05
-5.1374667236814275e-05,1.7013002434396185e-05,-3.525207648635842e-05,1.3141705494490452e-05
-5.400600639404729e-05,2.5642308173701167e-05,-3.342286072438583e-05,1.5917430573608726e-05
-5.668374797096476e-05,4.2271385609637946e-05,-2.9924047339591198e-05,2.224979289167095e-05
-5.529184272745624e-05,5.452286859508604e-05,-2.794630199787207e-05,2.8622791433008388e-05
-5.083160795038566e-05,6.276113708736375e-05,-2.993458474520594e-05,3.36569755745586e-05
-4.913258453598246e-05,6.444304744945839e-05,-3.615447712945752e-05,3.5356744774617255e-05
-5.267967208055779e-05,5.566720574279316e-05,-4.352395990281366e-05,3.0962619348429143e-05
-5.8353220083517954e-05,3.999171167379245e-05,-4.949365757056512e-05,2.6463405447429977e-05
-6.160408520372584e-05,2.8866244974778965e-05,-4.943021122016944e-05,2.772356674540788e-05
-5.8206398534821346e-05,2.928718095063232e-05,-4.344007174950093e-05,3.2658477721270174e-05
-4.820600224775262e-05,3.0511508157360367e-05,-3.786457818932831e-05,3.547780215740204e-05
-3.857179035549052e-05,1.8472848751116544e-05,-3.576416929718107e-05,3.69691988453269e-05
-3.718396692420356e-05,-1.9705616978171747e-06,-3.410960198380053e-05,3.898068825947121e-05
-4.4629046897171065e-05,-6.980247690080432e-06,-3.178434053552337e-05,3.827680484391749e-05
-5.434237027657218e-05,8.427386092080269e-06,-2.6681860617827624e-05,3.2692827517166734e-05
-5.7915680372389033e-05,2.473891436238773e-05,-1.598612652742304e-05,2.6049407097161748e-05
-5.3112282330403104e-05,3.212054434698075e-05,-4.956831162417075e-06,2.168816172343213e-05
-4.7417794121429324e-05,3.757127342396416e-05,1.3303124433150515e-06,2.049957402050495e-05
-4.714101669378579e-05,4.008321775472723e-05,2.0954730644007213e-06,2.055519689747598e-05
-5.254335337667726e-05,3.6310430004959926e-05,-4.442749741428997e-06,1.864947989815846e-05
-5.661049726768397e-05,2.717690949793905e-05,-1.3826981557940599e-05,1.4148246918921359e-05
-5.121919821249321e-05,1.8863664081436582e-05,-2.0813957235077396e-05,1.0384268534835428e-05
-4.8987847549142316e-05,1.53106520883739e-05,-2.5184273908962496e-05,8.864713890943676e-06
-5.310036431183107e-05,9.766082257556263e-06,-2.7797737857326865e-05,1.0623693015077151e-05
-5.112130384077318e-05,-4.528705176198855e-06,-3.124288559774868e-05,1.3395631867751945e-05
-4.476779213291593e-05,-1.729337418510113e-05,-3.6008303140988573e-05,1.204627005790826e-05
-4.5298042095964774e-05,-1.7070380636141635e-05,-3.75157396774739e-05,1.2124943168601021e-05
-5.027423321735114e-05,-9.044279977388214e-06,-3.828254193649627e-05,1.4314828149508685e-05
-5.079046968603507e-05,3.417592552068527e-06,-4.1078303183894604e-05,1.6680112821632065e-05
-5.062174750491977e-05,1.2969213457836304e-05,-4.208806421956979e-05,1.9634377167676575e-05
-5.525523010874167e-05,1.003470788418781e-05,-3.8035912439227104e-05,2.1588002709904686e-05
-5.61789856874384e-05,-2.898937509598909e-06,-3.1630646844860166e-05,2.362288250878919e-05
-4.866311064688489e-05,-1.0381016181781888e-05,-2.7980582672171295e-05,2.685902472876478e-05
-4.2009298340417445e-05,-9.467378276895033e-07,-2.808524004649371e-05,2.6635825634002686e-05
-3.791257040575147e-05,2.0081160982954316e-05,-2.824408329615835e-05,2.382810453127604e-05
-3.344214565004222e-05,3.423959788051434e-05,-2.570335527707357e-05,2.3911923562991433e-05
-3.18482234433759e-05,2.9665776310139336e-05,-2.3584481823490933e-05,2.4719678549445234e-05
-3.3776996133383363e-05,2.2275971787166782e-05,-2.1186875528655946e-05,2.6345751393819228e-05
-3.9511898648925126e-05,3.1102466891752556e-05,-1.5896879631327465e-05,3.10910509142559e-05
-5.113277074997313e-05,5.331595821189694e-05,-1.0676259989850223e-05,3.772263153223321e-05
-6.576029409188777e-05,8.062432607403025e-05,-1.0674594705051277e-05,3.8911090086912736e-05
-7.717638072790578e-05,0.00010534067405387759,-1.557684845465701e-05,3.514670243021101e-05
-7.96762979007326e-05,0.00011518069368321449,-2.0867948478553444e-05,3.370469858055003e-05
-7.497041951864958e-05,0.00010560145165072754,-2.36091909755487e-05,3.6974695831304416e-05
-6.917825521668419e-05,8.330536365974694e-05,-2.376077463850379e-05,3.723096233443357e-05
-6.208761624293402e-05,6.002580266795121e-05,-2.032620250247419e-05,2.960869278467726e-05
-5.4863066907273605e-05,4.64694676338695e-05,-1.7762449715519324e-05,2.1580697648460045e-05
-5.157859777682461e-05,5.0487116823205724e-05,-1.96787113964092e-05,2.118994598276913e-05
-5.148459240444936e-05,6.465442857006565e-05,-2.1084113541292027e-05,2.5310626369901e-05
-4.750923108076677e-05,7.208192255347967e-05,-1.9334740500198677e-05,2.5372644813614897e-05
-3.761976404348388e-05,6.9668676587753e-05,-1.6091815268737264e-05,2.128073356288951e-05
-3.245994957978837e-05,6.180749915074557e-05,-1.827798223530408e-05,1.6267298633465543e-05
-3.752315024030395e-05,5.2467705245362595e-05,-2.398669494141359e-05,1.4483381164609455e-05
-4.6280085371108726e-05,4.362894469522871e-05,-2.660375139384996e-05,1.4236436982173473e-05
-4.667324901674874e-05,4.178875678917393e-05,-2.7872914870386012e-05,1.3287760339153465e-05
-4.284326496417634e-05,5.531328133656643e-05,-2.636444150994066e-05,1.213677205669228e-05
-4.5087341277394444e-05,7.237351383082569e-05,-2.3535600121249445e-05,1.0776141607493628e-05
-4.9080805183621123e-05,7.792404358042404e-05,-2.2572075977222994e-05,1.2088791663700249e-05
-5.076964225736447e-05,6.720681267324835e-05,-2.3751445041853003e-05,1.4465384992945474e-05
-5.126736868987791e-05,4.3312698835507035e-05,-2.4720218789298087e-05,1.352757044514874e-05
-5.257167504169047e-05,2.1759180526714772e-05,-2.7747802960220724e-05,1.074304418580141e-05
-5.519585101865232e-05,1.3309636415215209e-05,-3.167141039739363e-05,1.2263544704183005e-05
-5.2008672355441377e-05,1.1413451829866972e-05,-3.28708192682825e-05,1.8875669411499985e-05
-4.5444983697962016e-05,1.4418851606023964e-06,-3.290832682978362e-05,2.575556209194474e-05
-4.37718590546865e-05,-1.4876532986818347e-05,-3.428322452236898e-05,3.0507950214087032e-05
-4.689613342634402e-05,-2.5266603188356385e-05,-3.6064142477698624e-05,3.084067429881543e-05
-4.930141585646197e-05,-2.3996301024453714e-05,-3.5638684494188055e-05,2.8827304049627855e-05
-4.8836089263204485e-05,-1.4763791114091873e-05,-3.4140666684834287e-05,2.698872958717402e-05
-4.867234383709729e-05,-4.406837888382142e-06,-3.22161395160947e-05,2.359163590881508e-05
-4.690634159487672e-05,2.1355772332753986e-06,-2.984491948154755e-05,1.8508666471461765e-05
-4.32443521276582e-05,5.669350684911478e-06,-2.7131887691211887e-05,1.5352781701949425e-05
-4.236399399815127e-05,6.547511020471575e-06,-2.6179270207649097e-05,1.4284853932622354e-05
-4.44639335910324e-05,6.8529093368852045e-06,-2.484041397110559e-05,1.6121543012559414e-05
-4.4706164771923795e-05,1.6973322999547236e-05,-2.358644997002557e-05,2.0016712369397283e-05
-4.622515552910045e-05,2.9268958314787596e-05,-2.1975889467285015e-05,2.263774695165921e-05
-4.893111690762453e-05,3.4110096748918295e-05,-1.8252478184876963e-05,2.6207071641692892e-05
-5.220962702878751e-05,3.559307151590474e-05,-1.5522813555435278e-05,3.427541014389135e-05
-5.541391874430701e-05,3.759430910577066e-05,-1.1929799256904516e-05,4.095579424756579e-05
-5.150986908120103e-05,4.8444446292705834e-05,-1.1804788300651126e-05,4.096102566109039e-05
-4.67029822175391e-05,6.003330781823024e-05,-2.5663548512966372e-05,4.094387622899376e-05
-4.5055629016133025e-05,5.636310379486531e-05,-4.6635428589070216e-05,4.352362884674221e-05
-4.15487629652489e-05,3.9107497286750004e-05,-6.220633804332465e-05,4.729404463432729e-05
-4.0893657569540665e-05,1.9786946722888388e-05,-7.250462658703327e-05,4.713872476713732e-05
-4.708338747150265e-05,8.839601832733024e-06,-8.076087397057563e-05,4.1136507206829265e-05
-5.238088488113135e-05,6.217919235496083e-06,-8.964582229964435e-05,3.122508860542439e-05
-5.2866980695398524e-05,9.74129761743825e-06,-9.961718751583248e-05,1.9956587493652478e-05
-5.295423397910781e-05,1.6664798749843612e-05,-9.776921069715172e-05,1.2495626833697315e-05
-5.571659130509943e-05,2.573239544290118e-05,-7.483647641493008e-05,1.2785791113856249e-05
-5.87317808822263e-05,3.8996378862066194e-05,-3.4946948289871216e-05,1.584863093739841e-05
-5.658851296175271e-05,5.2897514251526445e-05,8.437958058493678e-06,1.4551462300005369e-05
-4.963955143466592e-05,6.077107536839321e-05,3.689265577122569e-05,9.52080972638214e-06
-4.233604340697639e-05,6.567267701029778e-05,4.095596887054853e-05,4.238805104250787e-06
-3.94731032429263e-05,6.720115197822452e-05,3.004939208040014e-05,-1.274817691410135e-06
-3.885499609168619e-05,5.864100603503175e-05,1.7172094885609113e-05,-4.303705736674601e-06
-3.9971881051314995e-05,4.2922754801111296e-05,8.433912626060192e-06,-7.803897688063444e-07
-4.367852307041176e-05,3.215064498363063e-05,8.233506378019229e-06,9.344019417767413e-06
-5.042300108470954e-05,2.6686091587180272e-05,1.3101011063554324e-05,2.12303020816762e-05
-5.682461414835416e-05,1.6423873603343964e-05,1.5531923054368235e-05,2.693494207051117e-05
-6.014452810632065e-05,9.60222337198502e-07,1.849089858296793e-05,2.6990112019120716e-05
-6.181665958138183e-05,-9.167649295704905e-06,1.814405550248921e-05,2.882402804971207e-05
-6.340625986922532e-05,-7.780630767229013e-06,-9.760668717717635e-07,3.43699794029817e-05
-6.491471867775545e-05,-4.344850367488107e-06,-2.7564236006583087e-05,3.9693892176728696e-05
-6.221854710020125e-05,1.932961822603829e-06,-3.4894761483883485e-05,4.1486058762529865e-05
-5.545850581256673e-05,1.704556962067727e-05,-2.1519112124224193e-05,4.143665137235075e-05
-4.805811113328673e-05,2.9728025765507482e-05,-4.323523626226233e-06,4.379618258099072e-05
-4.540235022432171e-05,3.366319288033992e-05,2.507967337805894e-06,4.468540282687172e-05
-4.4004871597280726e-05,3.2119449315359816e-05,-4.884549525741022e-06,4.086728586116806e-05
-3.962812479585409e-05,3.405473398743197e-05,-1.518165572633734e-05,3.0328681532409973e-05
-3.413345621083863e-05,4.270041608833708e-05,-1.977511237782892e-05,1.8294076653546654e-05
-3.339105023769662e-05,5.2410752687137574e-05,-2.0254734408808872e-05,1.1676509529934265e-05
-4.107805943931453e-05,5.99571576458402e-05,-2.304846202605404e-05,1.3886732631362975e-05
-5.4970856581348926e-05,6.030008080415428e-05,-2.368258901697118e-05,2.3854305254644714e-05
-6.999968900345266e-05,5.6681241403566673e-05,-1.9536040781531483e-05,3.0377503208001144e-05
-7.808249210938811e-05,4.516741682891734e-05,-1.680649074842222e-05,2.745248275459744e-05
-7.568737783003598e-05,2.899190440075472e-05,-2.0806330212508328e-05,2.2891485059517436e-05
-6.696281343465671e-05,2.689529355848208e-05,-2.571255936345551e-05,2.3258766304934397e-05
-5.963309376966208e-05,4.671753413276747e-05,-2.303570909134578e-05,2.4797576770652086e-05
-5.981765571050346e-05,6.69519358780235e-05,-1.777597572072409e-05,2.431001848890446e-05
-6.506887439172715e-05,6.257287896005437e-05,-1.8007833205047064e-05,2.204810152761638e-05
-6.780176772736013e-05,4.0764261939330027e-05,-2.5857405489659868e-05,2.0526476873783395e-05
-6.52493690722622e-05,2.6511339456192218e-05,-3.384507363080047e-05,2.1138417650945485e-05
-6.198555638547987e-05,2.9628332413267344e-05,-3.77221149392426e-05,2.2028290914022364e-05
-6.32991359452717e-05,3.536359508871101e-05,-3.979556277045049e-05,1.942619201145135e-05
-6.798182585043833e-05,3.0362019970198162e-05,-4.1709830838954076e-05,1.3936265531810932e-05
-6.720223609590903e-05,2.1032887161709368e-05,-4.1645875171525404e-05,1.1056942639697809e-05
-5.880716707906686e-05,1.827884443628136e-05,-4.073467789567076e-05,1.3925410712545272e-05
-4.991958849132061e-05,2.329797098354902e-05,-4.0949347749119624e-05,1.9059960322920233e-05
-4.785496275871992e-05,3.087870209128596e-05,-4.2871881305472925e-05,2.2279416953097098e-05
-5.149810021976009e-05,3.0557337595382705e-05,-4.1083807445829734e-05,2.3736123694106936e-05
-5.399823567131534e-05,2.069363290502224e-05,-3.5543540434446186e-05,2.3619044441147707e-05
-5.2211518777767196e-05,1.5794805676705437e-06,-3.375115556991659e-05,1.96540368051501e-05
-4.7534715122310445e-05,-1.9194092601537704e-05,-3.604268204071559e-05,1.6395299098803662e-05
-4.4941658416064456e-05,-2.1294992620823905e-05,-3.8099471566965804e-05,1.7046073480742052e-05
-4.158089723205194e-05,2.6186035029240884e-06,-3.7804846215294674e-05,2.1415331502794288e-05
-3.8390466215787455e-05,3.1108123948797584e-05,-3.517958975862712e-05,2.606930138426833e-05
-4.082130180904642e-05,4.566564894048497e-05,-3.512797047733329e-05,2.7444837542134337e-05
-4.6307042794069275e-05,5.195871563046239e-05,-3.816472599282861e-05,2.988324558828026e-05
-4.711628207587637e-05,5.827977292938158e-05,-3.898182330885902e-05,3.375548476469703e-05
-4.372591138235293e-05,6.473451503552496e-05,-3.593025394366123e-05,3.546828520484269e-05
-3.959018795285374e-05,6.691798625979573e-05,-3.240105797885917e-05,3.103341441601515e-05
-3.9719336200505495e-05,6.020160799380392e-05,-3.468898648861796e-05,2.3590991986566223e-05
-4.621749394573271e-05,4.8215042625088245e-05,-4.12068038713187e-05,1.5484651157748885e-05
-5.309522384777665e-05,3.8673006201861426e-05,-4.3196727347094566e-05,1.0802988072100561e-05
-5.294746006256901e-05,3.1335734092863277e-05,-3.593785368138924e-05,1.1254446690145414e-05
-4.523792085819878e-05,2.4724733520997688e-05,-2.6938521841657348e-05,1.3704227058042306e-05
-3.9719048800179735e-05,1.8814373106579296e-05,-2.2893997083883733e-05,1.769284062902443e-05
-3.852560621453449e-05,1.3092758308630437e-05,-1.91744420590112e-05,2.183639480790589e-05
-3.843600643449463e-05,7.059296876832377e-06,-9.547706213197671e-06,2.2701515263179317e-05
-3.9608617953490466e-05,3.835876327684673e-07,2.2699617829857743e-07,1.9923189029213972e-05
-4.35558395111002e-05,-7.425838703056797e-06,3.1195972951536532e-06,1.9253451682743616e-05
-4.4154981878818944e-05,-1.1849773727590218e-05,-1.1842042795251473e-06,2.2335967514663935e-05
-4.180929681751877e-05,-9.309096640208736e-06,-1.1859859114338178e-05,2.5948269467335194e-05
-4.3423704482847825e-05,-5.212734322412871e-06,-2.1262309019220993e-05,2.405186023679562e-05
-4.644674845621921e-05,1.0519603392822319e-06,-2.3281569156097248e-05,1.8841859855456278e-05
-4.5728276745649055e-05,1.3765490621153731e-05,-2.3788905309629627e-05,1.5804802387719974e-05
-4.309787982492708e-05,3.3433920179959387e-05,-2.6860554498853162e-05,1.5084216101968195e-05
-4.5135224354453385e-05,5.2204413805156946e-05,-3.2360250770580024e-05,1.529256951471325e-05
-4.983472535968758e-05,5.813290408696048e-05,-3.71052447007969e-05,1.744580004015006e-05
-4.587789953802712e-05,5.801950101158582e-05,-3.3948916097870097e-05,2.612272510305047e-05
-3.785928129218519e-05,6.144890357973054e-05,-2.986666004289873e-05,3.6119545256951824e-05
-3.411593570490368e-05,6.516294524772093e-05,-2.7341769964550622e-05,3.93848677049391e-05
-3.261084566474892e-05,6.445730105042458e-05,-2.4039305571932346e-05,3.526743603288196e-05
-3.4589280403451994e-05,6.470301013905555e-05,-2.6388230253360234e-05,3.09374590869993e-05
-3.6582816392183304e-05,6.768301682313904e-05,-3.0201459594536573e-05,3.14052049361635e-05
-3.3114356483565643e-05,6.206104444572702e-05,-3.110719262622297e-05,3.016827758983709e-05
-2.9596860258607194e-05,4.53317079518456e-05,-2.8869462767033838e-05,2.6891730158240534e-05
-3.100330650340766e-05,3.50399968738202e-05,-2.6560004698694684e-05,2.19551566260634e-05
-3.2435378670925274e-05,3.8975213101366535e-05,-2.680790566955693e-05,1.7737103917170316e-05
-3.204774475307204e-05,4.418018215801567e-05,-2.8291797207202762e-05,1.6475762095069513e-05
-3.522645420162007e-05,4.462447759578936e-05,-2.8710326660075225e-05,1.8799983081407845e-05
-4.646150046028197e-05,4.571929093799554e-05,-2.898707680287771e-05,2.3321837943512946e-05
-5.338244591257535e-05,4.605955473380163e-05,-2.9727432774961926e-05,2.4696682885405608e-05
-4.82028626720421e-05,3.554103750502691e-05,-3.052516694879159e-05,2.2253261704463512e-05
-4.150438689975999e-05,1.2980224710190669e-05,-3.221238875994459e-05,1.8139538951800205e-05
-4.388803426991217e-05,-9.964665878214873e-06,-3.26999906974379e-05,1.6617836081422865e-05
-4.958049248671159e-05,-2.1060484868939966e-05,-3.200257197022438e-05,1.9415652786847204e-05
-4.940934377373196e-05,-2.285931805090513e-05,-3.150363409076817e-05,2.1793917767354287e-05
-4.7783843911020085e-05,-2.2545676984009333e-05,-2.9924165573902428e-05,1.9507930119289085e-05
-4.901992724626325e-05,-2.2503529180539772e-05,-2.6827894544112496e-05,1.5821504348423332e-05
-4.9889498768607154e-05,-2.435797250655014e-05,-2.815512561937794e-05,1.5491919839405455e-05
-5.059533577878028e-05,-2.205539021815639e-05,-3.361895869602449e-05,1.5593914213241078e-05
-5.242920815362595e-05,-1.6924566352827242e-06,-3.830492642009631e-05,1.2806623090000357e-05
-5.145964678376913e-05,3.070518869208172e-05,-4.162642653682269e-05,1.1242307664360851e-05
-4.986024578101933e-05,4.86277203890495e-05,-4.1454735765000805e-05,1.6267174942186102e-05
-4.8275822337018326e-05,5.028617670177482e-05,-3.491587995085865e-05,2.3139740733313374e-05
-4.950512811774388e-05,4.925585744786076e-05,-2.6485184207558632e-05,2.1476442270795815e-05
-5.4316275054588914e-05,3.83074366254732e-05,-2.4758170184213668e-05,1.726139453239739e-05
-5.888807208975777e-05,2.567071896919515e-05,-2.5549667043378577e-05,1.5757203073007986e-05
-5.704448631149717e-05,2.9483988328138366e-05,-2.4873781512724236e-05,2.1213494619587436e-05
-5.457907900563441e-05,4.100070509593934e-05,-2.6886918931268156e-05,2.8569931600941345e-05
-5.763911394751631e-05,5.201459498493932e-05,-2.8575283067766577e-05,3.204588210792281e-05
-5.925763616687618e-05,5.8881738368654624e-05,-2.8458705855882727e-05,3.329922037664801e-05
-6.245083204703405e-05,5.724788934458047e-05,-2.6610936401993968e-05,2.9907394491601735e-05
-6.386139284586534e-05,5.454069105326198e-05,-2.6636605980456807e-05,2.5425239073229022e-05
-6.334552745101973e-05,5.4318661568686366e-05,-2.8589152861968614e-05,2.5100805942201987e-05
-6.258312350837514e-05,5.55882797925733e-05,-3.211735383956693e-05,2.560800021456089e-05
-6.207454862305894e-05,5.8544366766000167e-05,-3.3623357012402266e-05,2.5534200176480226e-05
-6.053012839402072e-05,6.115878204582259e-05,-3.2836906029842794e-05,2.8271862902329303e-05
-5.8718469517771155e-05,6.219347415026277e-05,-3.2346739317290485e-05,3.0207320378394797e-05
-6.015229519107379e-05,6.186781683936715e-05,-3.0150235033943318e-05,3.13886339426972e-05
-6.024440881446935e-05,6.034365651430562e-05,-2.545982897572685e-05,3.269748776801862e-05
-5.419987428467721e-05,5.3178267990006134e-05,-2.0479261365835555e-05,3.448269853834063e-05
-4.976574928150512e-05,4.501804505707696e-05,-1.982757748919539e-05,3.393278529983945e-05
-5.433608384919353e-05,4.601845648721792e-05,-1.985188282560557e-05,3.127554009552114e-05
-5.526231325347908e-05,5.3160380048211664e-05,-1.6459234757348895e-05,2.923475403804332e-05
-4.7174406063277274e-05,5.6886201491579413e-05,-1.4457210454565939e-05,2.932108509412501e-05
-4.237475150148384e-05,5.539819903788157e-05,-2.0502324332483113e-05,2.9927534342277795e-05
-4.730250657303259e-05,5.2386021707206964e-05,-2.7220787160331383e-05,2.9602459107991308e-05
-4.9638256314210594e-05,4.988742875866592e-05,-2.917957135650795e-05,2.6050856831716374e-05
-4.618133243639022e-05,4.475337118492462e-05,-2.8872727853013203e-05,1.96696328202961e-05
-4.4272215745877475e-05,3.591737549868412e-05,-3.153158468194306e-05,1.4867777281324379e-05
-4.122585232835263e-05,3.250367444707081e-05,-3.2820280466694385e-05,1.5931578673189506e-05
-4.0393908420810476e-05,3.925089185941033e-05,-2.7178506570635363e-05,2.3783697542967275e-05
-4.4464959501056e-05,3.529934474499896e-05,-2.3194215827970766e-05,2.9541048206738196e-05
-4.0957627788884565e-05,1.3987340935273096e-05,-2.2991476726019755e-05,3.0236948077799752e-05
-3.304522397229448e-05,-5.987789791106479e-06,-2.4504211978637613e-05,3.0928466003388166e-05
-3.4895398130174726e-05,-2.06349250220228e-05,-2.4503931854269467e-05,2.7935664547840133e-05
-4.546284253592603e-05,-2.7698883059201762e-05,-2.394344483036548e-05,2.554205639171414e-05
-5.132151272846386e-05,-7.841743354219943e-06,-2.8417274734238163e-05,3.0246899768826552e-05
-4.788622754858807e-05,4.714720853371546e-05,-3.228849163861014e-05,3.834200106211938e-05
-4.537924542091787e-05,9.890873479889706e-05,-3.469920557108708e-05,4.344276385381818e-05
-5.164721005712636e-05,0.00010107109119417146,-3.753690543817356e-05,3.81627214665059e-05
-5.981927824905142e-05,6.129343091743067e-05,-4.156898648943752e-05,3.234848554711789e-05
-6.49000721750781e-05,2.5069737603189424e-05,-4.0935949073173106e-05,3.034675683011301e-05
-6.675623444607481e-05,1.6482990758959204e-05,-3.563932841643691e-05,2.9421667932183482e-05
-6.865888281026855e-05,2.4128785298671573e-05,-2.8764690796379e-05,2.794279316731263e-05
-6.865524483146146e-05,3.404265225981362e-05,-1.675746898399666e-05,2.7732890885090455e-05
-6.483346078312024e-05,4.789829836227e-05,-2.300701225976809e-06,3.0452276405412704e-05
-5.9993435570504516e-05,6.764805584680289e-05,7.070521405694308e-06,3.4240940294694155e-05
-5.3393072448670864e-05,8.531396451871842e-05,8.870017154549714e-06,3.4913486160803586e-05
-4.684205850935541e-05,8.853142207954079e-05,7.320105396502186e-06,3.198463673470542e-05
-4.121283927815966e-05,7.538266072515398e-05,5.384338692238089e-06,3.0021166821825318e-05
-3.696510975714773e-05,5.4376356274588034e-05,2.1049906990810996e-06,2.7940595828113146e-05
-3.992118945461698e-05,2.995880277012475e-05,-4.663759227696573e-06,2.272686833748594e-05
-4.812164479517378e-05,9.258614227292128e-06,-1.5317933502956294e-05,1.7227397620445117e-05
-4.672841168940067e-05,4.514638931141235e-06,-2.8954806111869402e-05,1.7494781786808744e-05
-3.926414137822576e-05,7.5426855801197235e-06,-3.535681389621459e-05,2.31445246754447e-05
-3.4455933928256854e-05,1.5734144653833937e-06,-3.7394125683931634e-05,2.9020133297308348e-05
-3.874120011460036e-05,-1.3400772331806365e-06,-4.5574051910080016e-05,2.936239616246894e-05
-4.3793806980829686e-05,1.7333749724457448e-07,-5.648468868457712e-05,2.878768827940803e-05
-3.9925373130245134e-05,-3.5170992305211257e-06,-6.116736767580733e-05,3.0043322112760507e-05
-3.24980283039622e-05,1.0486991186553496e-06,-5.7770172134041786e-05,3.456366539467126e-05
-2.63946258201031e-05,1.1448332770669367e-05,-4.6507764636771753e-05,3.911492240149528e-05
-2.5141607693512924e-05,1.1671908396237995e-05,-3.515433127176948e-05,4.277607877156697e-05
-3.0410323233809322e-05,3.011261242136243e-06,-3.519226811476983e-05,4.130461820750497e-05
-4.061758954776451e-05,-4.236007498548133e-06,-4.2448366002645344e-05,2.8941525670234114e-05
-4.984672705177218e-05,-4.706078016170068e-06,-4.3899795855395496e-05,1.5978845112840645e-05
-4.964510299032554e-05,4.865685241384199e-06,-3.8487713027279824e-05,1.1454804734967183e-05
-4.3133419239893556e-05,1.941969821928069e-05,-3.368037141626701e-05,1.581211108714342e-05
-4.376973447506316e-05,3.2785741495899856e-05,-3.2599909900454804e-05,1.9410616005188785e-05
-4.844759314437397e-05,3.885799378622323e-05,-3.305556674604304e-05,1.9111015717498958e-05
-4.906079630018212e-05,3.7478948797797784e-05,-3.1829855288378894e-05,1.7005235349643044e-05
-4.991487003280781e-05,3.247399581596255e-05,-2.59944408753654e-05,1.5611221897415817e-05
-5.7631699746707454e-05,2.6629515559761785e-05,-1.663353032199666e-05,1.4917730368324555e-05
-6.528709491249174e-05,2.2731888748239726e-05,-6.263830528041581e-06,1.5489627912756987e-05
-6.39679710729979e-05,2.0968209355487488e-05,9.110959808822372e-07,2.0056259018019773e-05
-5.726908420911059e-05,2.1425343220471404e-05,-1.3470006479110452e-06,2.325955210835673e-05
-5.3291998483473435e-05,2.1951476810500026e-05,-1.193508524011122e-05,1.9744216842809692e-05
-5.624206460197456e-05,2.017755468841642e-05,-2.077268982247915e-05,1.516458905825857e-05
-6.228794518392533e-05,1.604050339665264e-05,-2.3519785827375017e-05,1.505983073002426e-05
-6.331229087663814e-05,1.239958237420069e-05,-2.6258294383296743e-05,1.4441451639868319e-05
-6.24559834250249e-05,4.731254648504546e-06,-3.165984162478708e-05,1.0689545888453722e-05
-6.79660151945427e-05,1.5870288052610704e-06,-3.7209178117336705e-05,5.057112048234558e-06
-7.153979095164686e-05,1.1919482858502306e-05,-4.0114671719493344e-05,3.504754204186611e-06
-7.020058546913788e-05,2.4144848794094287e-05,-4.1226572648156434e-05,1.3979307368572336e-05
-7.043548976071179e-05,2.7930762371397577e-05,-4.290836295695044e-05,2.4485192625434138e-05
-7.026459934422746e-05,2.551186662458349e-05,-4.421327685122378e-05,2.6831832656171173e-05
-6.426428444683552e-05,2.710324952204246e-05,-3.935804852517322e-05,2.886721267714165e-05
-5.787587724626064e-05,3.531918264343403e-05,-3.204193490091711e-05,2.8028120141243562e-05
-5.792567753815092e-05,4.367034125607461e-05,-2.6901943783741444e-05,2.3953096388140693e-05
-6.0094196669524536e-05,5.504625733010471e-05,-2.412840331089683e-05,2.0242792743374594e-05
-6.209420826053247e-05,6.81344245094806e-05,-2.196469358750619e-05,2.0796207536477596e-05
-5.752072684117593e-05,7.680531416554004e-05,-1.7641123122302815e-05,2.2114325474831276e-05
-4.8842281103134155e-05,7.64813376008533e-05,-8.235585482907481e-06,2.5474668291280977e-05
-4.5502874854719266e-05,6.80547091178596e-05,8.443512342637405e-07,2.64457194134593e-05
-4.688726403401233e-05,5.590005457634106e-05,3.5395648865232943e-06,2.2331412765197456e-05
-4.879176776739769e-05,4.625866495189257e-05,-4.725174562736356e-07,2.0581468561431393e-05
-4.728077328763902e-05,4.529274519882165e-05,-7.244811513373861e-06,2.0719535314128734e-05
-3.858863055938855e-05,4.341311432654038e-05,-1.0525965080887545e-05,2.1569416276179254e-05
-2.538161788834259e-05,3.639855276560411e-05,-1.0340108929085545e-05,2.292124008818064e-05
-2.0027890059282072e-05,2.624907938297838e-05,-1.0525159268581774e-05,2.3742177290841937e-05
-2.8711892809951678e-05,7.73259762354428e-06,-1.1246950634813402e-05,2.0424031390575692e-05
-4.190665276837535e-05,-1.1057396477553993e-05,-8.324218470079359e-06,1.7282209228142165e-05
-4.9006626795744523e-05,-1.6710872614567052e-06,-2.969508159367251e-06,1.9320945284562185e-05
-5.168090865481645e-05,3.8998990930849686e-05,2.627613412187202e-06,2.6488021831028163e-05
-4.932552110403776e-05,7.096483022905886e-05,7.031901986920275e-06,3.105205178144388e-05
-4.097142300452106e-05,6.736692012054846e-05,4.6823715820210055e-06,2.7043322916142642e-05
-3.396493775653653e-05,4.926071051158942e-05,-3.728167030203622e-06,2.0280827811802737e-05
-3.546989319147542e-05,4.2422681872267276e-05,-9.150847290584352e-06,2.0532437702058814e-05
-4.06588296755217e-05,4.703396916738711e-05,-1.344020347460173e-05,2.1236004613456316e-05
-4.78117581224069e-05,5.256731674307957e-05,-2.1987056243233383e-05,1.9758088456001133e-05
-5.503559441422112e-05,4.819782043341547e-05,-2.9063463443890214e-05,2.0065815988346003e-05
-5.601731754723005e-05,3.786319211940281e-05,-2.8710788683383726e-05,1.8646840544533916e-05
-5.5801654525566846e-05,2.9855382308596745e-05,-2.5219069357262924e-05,1.2852869076596107e-05
-5.3736905101686716e-05,2.6169618649873883e-05,-2.8122989533585496e-05,9.221400432579685e-06
-5.155075996299274e-05,3.4010150557151064e-05,-3.2876669138204306e-05,1.3366205166676082e-05
-5.008186781196855e-05,5.010233144275844e-05,-3.368505713297054e-05,1.5658104530302808e-05
-5.294717266224325e-05,5.178018182050437e-05,-3.6011129850521684e-05,1.4712502888869494e-05
-5.9827529184985906e-05,3.054882836295292e-05,-3.6892462958348915e-05,1.2294317457417492e-05
-6.127551750978455e-05,3.171270691382233e-06,-3.490996459731832e-05,1.1219834050280042e-05
-5.953251456958242e-05,-1.6024789147195406e-05,-3.072218896704726e-05,1.3917524483986199e-05
-5.908855018788017e-05,-2.1121833924553357e-05,-3.035561712749768e-05,1.7186363038490526e-05
-6.294658669503406e-05,-1.9528255506884307e-05,-3.115667277597822e-05,1.9132876332150772e-05
-6.975282303756103e-05,-1.773895201040432e-05,-3.204070162610151e-05,1.6352716556866653e-05
-6.865947943879291e-05,-1.4694076526211575e-05,-3.4734435757854953e-05,1.1282289051450789e-05
-5.723729918827303e-05,-6.025906714057783e-06,-3.632538573583588e-05,1.1475011888251174e-05
-4.8769656132208183e-05,8.802227966953069e-06,-3.817894685198553e-05,1.752569733071141e-05
-4.7356410505017266e-05,2.7154017516295426e-05,-4.1206381865777075e-05,2.329657036170829e-05
-4.6882771130185574e-05,4.638798418454826e-05,-4.21001786889974e-05,2.689578104764223e-05
-4.3524978536879644e-05,5.922293712501414e-05,-3.984238355769776e-05,3.088477023993619e-05
-4.0715265640756115e-05,6.199607742018998e-05,-3.9945825847098604e-05,3.529470632201992e-05
-4.3989362893626094e-05,5.6627926824148744e-05,-3.901887612300925e-05,3.8153932109707966e-05
-5.51532612007577e-05,4.9628884880803525e-05,-3.4595057513797656e-05,3.664426549221389e-05
-6.572066922672093e-05,4.533670289674774e-05,-3.08642047457397e-05,2.727114588196855e-05
-7.003852806519717e-05,4.4421849452191964e-05,-2.9968454327899963e-05,1.4427117093873676e-05
-6.972716801101342e-05,4.262207221472636e-05,-2.9807442842866294e-05,7.907205144874752e-06
-6.402473081834614e-05,4.2245745135005563e-05,-3.1843741453485563e-05,1.0932034456345718e-05
-5.531634815270081e-05,4.064182940055616e-05,-3.2159165129996836e-05,1.4822084267507307e-05
-4.750816151499748e-05,2.8836204364779405e-05,-2.8068257961422205e-05,1.700297616480384e-05
-3.6576810089172795e-05,2.204201155109331e-05,-2.3325002985075116e-05,2.1579300664598122e-05
-2.4932769520091824e-05,4.239389454596676e-05,-2.1297009880072437e-05,2.4618670067866333e-05
-1.3075265997031238e-05,7.40709001547657e-05,-1.7711290638544597e-05,2.834073529811576e-05
-4.56918269264861e-06,8.376670302823186e-05,-1.2773130038112868e-05,3.157261016895063e-05
-1.257598887605127e-05,6.791182386223227e-05,-1.1366024409653619e-05,3.091236430918798e-05
-2.944657717307564e-05,5.145577233633958e-05,-2.0326453523011878e-05,2.7949294235440902e-05
-4.187615923001431e-05,5.0402642955305055e-05,-3.822190410573967e-05,2.5630881282268092e-05
-4.549654113361612e-05,4.6996301534818485e-05,-5.357917689252645e-05,2.427580693620257e-05
-4.542282476904802e-05,3.231947994208895e-05,-5.766670437878929e-05,2.5026698494912125e-05
-4.445064041647129e-05,2.0313997083576396e-05,-5.02684670209419e-05,2.7850353944813833e-05
-4.5167798816692084e-05,1.6847185179358348e-05,-3.9441612898372114e-05,2.8078431569156237e-05
-4.471436113817617e-05,2.0128669348196127e-05,-3.180591011187062e-05,2.7507108825375326e-05
-4.328969225753099e-05,2.099563971569296e-05,-2.9284705306054093e-05,2.8732025384670123e-05
-4.038733823108487e-05,1.3493901860783808e-05,-2.7167969165020622e-05,3.0538987630279735e-05
-3.747701703105122e-05,5.578414402407361e-06,-2.576187216618564e-05,3.120350811514072e-05
-3.818912591668777e-05,8.528027137799654e-06,-2.5604134862078354e-05,2.9991479095770046e-05
-4.306873233872466e-05,2.1005846065236256e-05,-2.536897773097735e-05,2.6062898541567847e-05
-4.8659461754141375e-05,3.299920354038477e-05,-2.3934429918881506e-05,2.1206813471508212e-05
-4.99681627843529e-05,3.7886577047174796e-05,-2.3402715669362806e-05,1.7972950445255265e-05
-4.969823930878192e-05,3.678520079120062e-05,-2.5353807359351777e-05,1.7400207070750184e-05
-4.8170910304179415e-05,3.477117570582777e-05,-2.6829105991055258e-05,1.9502989744069055e-05
-4.576216088025831e-05,3.3035248634405434e-05,-2.353351555939298e-05,2.280535045429133e-05
-4.052320946357213e-05,3.229550566175021e-05,-1.972117752302438e-05,2.553424383222591e-05
-3.369616388226859e-05,3.456160266068764e-05,-1.894512024591677e-05,2.742864307947457e-05
-3.272815956734121e-05,3.902032403857447e-05,-1.7642940292716958e-05,3.192927033524029e-05
-3.78728291252628e-05,3.939900852856226e-05,-1.564596823300235e-05,3.653532621683553e-05
-4.460414857021533e-05,3.14481949317269e-05,-1.3549106370192021e-05,3.610955172916874e-05
-5.122984657646157e-05,1.4799014024902135e-05,-1.644811527512502e-05,3.325325815239921e-05
-5.779815910500474e-05,1.613787787846377e-07,-2.5727100364747457e-05,2.8298025426920503e-05
-6.313755147857592e-05,3.1004612992546754e-06,-3.134727376163937e-05,2.3890221200417727e-05
-5.7894289057003334e-05,2.308349939994514e-05,-2.9685121262446046e-05,2.572673838585615e-05
-5.237086224951781e-05,3.937308065360412e-05,-2.6421328584547155e-05,2.976937685161829e-05
-5.340777715900913e-05,3.840756107820198e-05,-2.57301999226911e-05,2.9950078896945342e-05
-5.2825125749222934e-05,3.2658725103829056e-05,-2.8290469344938174e-05,2.9852217267034575e-05
-4.4604053982766345e-05,2.933398172899615e-05,-2.8023838240187615e-05,3.214360913261771e-05
-3.466274938546121e-05,2.4396002118010074e-05,-2.4168855816242285e-05,3.234280302422121e-05
-3.245097468607128e-05,1.5240707398334052e-05,-2.4221535568358377e-05,2.6687657737056725e-05
-3.8745372876292095e-05,5.816588327434147e-06,-2.836343446688261e-05,1.888442966446746e-05
-4.482920121517964e-05,1.9432859517110046e-06,-3.0802628316450864e-05,1.3323860912350938e-05
-4.469295163289644e-05,4.9235236474487465e-06,-2.7942673114011995e-05,1.5158715541474521e-05
-4.208879909128882e-05,1.0216602277068887e-05,-2.0988225514884107e-05,2.127562402165495e-05
-3.964995630667545e-05,1.2062413588864729e-05,-1.3028783541813027e-05,2.514039988454897e-05
-3.8556598155992106e-05,1.7064443454728462e-05,-6.277003194554709e-06,2.6992440325557254e-05
-3.8186582969501615e-05,3.598455441533588e-05,-1.6039390402511344e-06,2.873053563234862e-05
-3.998868851340376e-05,6.605288217542693e-05,-8.50549440656323e-07,3.402486981940456e-05
-4.3360560084693134e-05,9.184312511933967e-05,-6.5056483435910195e-06,4.122928294236772e-05
-4.549398727249354e-05,0.0001027385369525291,-1.727749258861877e-05,4.340050872997381e-05
-4.7668425395386294e-05,0.00010134490003110841,-2.7611591576715e-05,3.7001991586294025e-05
-5.2659819630207494e-05,9.466932533541694e-05,-3.666753400466405e-05,2.7992118702968583e-05
-5.550149944610894e-05,7.959135109558702e-05,-4.898636689176783e-05,2.188586768170353e-05
-6.004060560371727e-05,5.5937602155609056e-05,-5.820714795845561e-05,2.146633414668031e-05
-6.96108618285507e-05,3.0364277336047962e-05,-5.6488861446268857e-05,2.3755919755785726e-05
-7.820784230716527e-05,1.2089933989045676e-05,-4.8796562623465434e-05,2.4574688723077998e-05
-8.160204015439376e-05,5.095458618598059e-06,-3.886761260218918e-05,2.4194014258682728e-05
-7.936638576211408e-05,2.4923581349867163e-06,-2.996076364070177e-05,2.1026200556661934e-05
-6.958430458325893e-05,2.22544349526288e-06,-2.4301167286466807e-05,1.484784843341913e-05
-5.924992365180515e-05,9.093592780118342e-06,-2.2057745809433982e-05,1.0759402357507497e-05
-5.142038207850419e-05,1.627265191928018e-05,-2.2030122636351734e-05,1.1590079338930082e-05
-4.1792118281591684e-05,1.471834912081249e-05,-2.1418858523247764e-05,1.5692099623265676e-05
-3.582092540455051e-05,1.2149764188507106e-05,-2.1569099772023037e-05,1.882117248896975e-05
-3.698844011523761e-05,4.0406953303318005e-06,-2.5633924451540224e-05,1.816476105886977e-05
-4.711220390163362e-05,-1.5116092981770635e-05,-3.0913895898265764e-05,1.634292675589677e-05
-5.583344682236202e-05,-3.148062023683451e-05,-2.900955587392673e-05,1.5989531675586477e-05
-5.234031777945347e-05,-3.0001321647432633e-05,-2.3942271582200192e-05,1.3879724974685814e-05
-4.3812335206894204e-05,-1.648460420256015e-05,-2.1713633032049984e-05,1.2678856364800595e-05
-3.8881884393049404e-05,-1.4331742931972258e-05,-2.2074600565247238e-05,1.699239328445401e-05
-4.482354415813461e-05,-2.6008226996054873e-05,-2.1098441720823757e-05,2.330487586732488e-05
-5.7037570513784885e-05,-2.4192708224290982e-05,-2.1085306798340753e-05,2.584945468697697e-05
-6.473989924415946e-05,7.326849754463183e-06,-2.3233018509927206e-05,2.568678064562846e-05
-6.829580524936318e-05,4.551956953946501e-05,-2.500168193364516e-05,2.650608803378418e-05
-7.379300950560719e-05,6.149164255475625e-05,-2.601741289254278e-05,2.677124757610727e-05
-7.854132127249613e-05,5.715150837204419e-05,-2.6479969164938666e-05,2.5085420929826796e-05
-7.323039608309045e-05,6.034174293745309e-05,-2.6362782591604628e-05,2.6311481633456424e-05
-5.9874259022763e-05,8.050470205489546e-05,-2.2303700461634435e-05,3.171453136019409e-05
-5.101746501168236e-05,9.21773025766015e-05,-1.5803489077370614e-05,3.4447715734131634e-05
-4.789407103089616e-05,7.545750850113109e-05,-1.3696412679564673e-05,3.2253523386316374e-05
-4.70581253466662e-05,4.809249730897136e-05,-1.9981613149866462e-05,2.9127453672117554e-05
-5.109213452669792e-05,3.766211011679843e-05,-2.8327625841484405e-05,2.606523958093021e-05
-5.4886571888346225e-05,4.6447043132502586e-05,-3.0724346288479865e-05,2.3057848011376336e-05
-5.46873125131242e-05,5.249818423180841e-05,-2.9852930310880765e-05,2.2514874217449687e-05
-4.984009137842804e-05,4.2632484110072255e-05,-3.127765012322925e-05,2.1761710740975104e-05
-4.4559408706845716e-05,3.453160388744436e-05,-3.2421899959445e-05,2.093186958518345e-05
-4.295247344998643e-05,3.6618828744394705e-05,-2.8945310987182893e-05,1.8706192349782214e-05
-4.3259773519821465e-05,3.802355786319822e-05,-2.5360490326420404e-05,1.6041271010180935e-05
-4.3331914639566094e-05,3.834940434899181e-05,-2.4132617909344845e-05,1.5656301911803894e-05
-4.787605212186463e-05,4.030602576676756e-05,-2.0573686924763024e-05,2.0980703993700445e-05
-4.870506745646708e-05,3.797254612436518e-05,-2.037057129200548e-05,3.1842915632296354e-05
-3.909109000233002e-05,3.635058965301141e-05,-1.960268127731979e-05,4.260406058165245e-05
-3.1246421713149175e-05,4.0648006688570604e-05,-1.807295484468341e-05,4.342053580330685e-05
-3.4568412957014516e-05,4.882591747445986e-05,-2.063186366285663e-05,3.3809006708906963e-05
-4.620670370059088e-05,6.30814247415401e-05,-2.4531011149520054e-05,2.5204382836818695e-05
-5.573760427068919e-05,7.544895197497681e-05,-2.6282350518158637e-05,2.1596375518129207e-05
-6.21675790171139e-05,7.30583633412607e-05,-2.9013517632847652e-05,2.229655729024671e-05
-6.491610838565975e-05,5.7864541304297745e-05,-3.3421023545088246e-05,2.3840013454901055e-05
-6.632480653934181e-05,4.46246012870688e-05,-3.435880353208631e-05,2.5164745238726027e-05
-6.619007035624236e-05,4.194410939817317e-05,-3.1272342312149704e-05,2.7029196644434705e-05
-6.297780782915652e-05,4.5588501961901784e-05,-2.6903089747065678e-05,2.880236024793703e-05
-5.531725400942378e-05,4.594516212819144e-05,-2.553230478952173e-05,2.9460245059453882e-05
-4.477129186852835e-05,3.880708391079679e-05,-2.6323430574848317e-05,2.92732183879707e-05
-3.699729131767526e-05,2.6610023269313388e-05,-2.7780357413575985e-05,2.7745785700972192e-05
-3.7294001231202856e-05,1.3175064850656781e-05,-2.870341995730996e-05,2.6048463041661307e-05
-4.7173642087727785e-05,5.411184702097671e-06,-3.058895163121633e-05,2.2718795662513003e-05
-5.91292446188163e-05,8.01417263573967e-06,-3.077913061133586e-05,1.5342197002610192e-05
-5.979555135127157e-05,2.0154024241492152e-05,-2.633130679896567e-05,1.1437795365054626e-05
-4.578511288855225e-05,3.767744419747032e-05,-2.0270488676032983e-05,1.7380350982421078e-05
-3.518991434248164e-05,4.9213547754334286e-05,-1.819948374759406e-05,2.9219387215562165e-05
-3.750374526134692e-05,4.408898530527949e-05,-2.017214137595147e-05,3.8219244743231684e-05
-4.529210855253041e-05,3.206045221304521e-05,-2.107916952809319e-05,4.024832378490828e-05
-5.188773138797842e-05,2.519295594538562e-05,-2.0906014469801448e-05,3.594043664634228e-05
-5.077230161987245e-05,2.713013964239508e-05,-2.220753776782658e-05,2.949860027001705e-05
-4.77218309242744e-05,3.4561697248136625e-05,-2.240010508103296e-05,2.8670903702732176e-05
-5.097022949485108e-05,4.008906762464903e-05,-2.546994437579997e-05,3.0387926017283462e-05
-5.349940329324454e-05,3.896523776347749e-05,-2.984864840982482e-05,3.259769073338248e-05
-5.2493483963189647e-05,3.251262751291506e-05,-3.0651830456918105e-05,3.495021155686118e-05
-4.670228372560814e-05,3.015903894265648e-05,-3.0471708669210784e-05,3.543669663486071e-05
-4.1840965423034504e-05,2.8558664780575782e-05,-3.372882565599866e-05,3.4532436984591186e-05
-4.226121382089332e-05,2.5577368433005176e-05,-3.466042835498229e-05,3.3105636248365045e-05
-4.671629358199425e-05,2.4472488803439774e-05,-3.1987918191589415e-05,3.136372833978385e-05
-5.030770626035519e-05,2.4905102691263892e-05,-3.231905429856852e-05,2.6584104489302263e-05
-5.0448026740923524e-05,2.23052211367758e-05,-3.445860056672245e-05,2.303304245288018e-05
-5.0178969104308635e-05,1.4206840205588378e-05,-3.622033182182349e-05,2.06239474209724e-05
-5.165665061213076e-05,2.354059006393072e-06,-3.455500700511038e-05,1.6857593436725438e-05
-5.22755944984965e-05,-5.686984877684154e-06,-3.118661334156059e-05,1.4158164958644193e-05
-5.1534731028368697e-05,2.2501828880194807e-06,-2.7311381927574985e-05,1.5404824807774276e-05
-5.1019760576309636e-05,2.068746107397601e-05,-2.4116101485560648e-05,1.8511738744564354e-05
-5.0449463742552325e-05,3.165910311508924e-05,-2.2747948605683632e-05,1.9440929463598877e-05
-5.007157596992329e-05,3.241079321014695e-05,-2.3976144802873023e-05,1.778644036676269e-05
-4.625229485100135e-05,3.676650158013217e-05,-2.377582495682873e-05,1.5454032109118998e-05
-3.8857178878970444e-05,4.3967083911411464e-05,-2.0233012037351727e-05,1.4949790966056753e-05
-3.495777855277993e-05,4.101959348190576e-05,-1.4709042261529248e-05,1.3883573956263717e-05
-3.958843808504753e-05,2.914580727519933e-05,-1.265867285837885e-05,1.0478575859451666e-05
-4.529855868895538e-05,2.3980404876056127e-05,-1.6983884052024223e-05,9.36439391807653e-06
-4.523348616203293e-05,3.090334212174639e-05,-2.0366398530313745e-05,1.017108661471866e-05
-4.2135801777476445e-05,3.288310472271405e-05,-2.0000212316517718e-05,1.0290529644407798e-05
-4.04015627282206e-05,2.0710711396532133e-05,-2.071524431812577e-05,1.0031581950897817e-05
-4.299274587538093e-05,8.41787095851032e-06,-2.2459766114479862e-05,7.9229785114876e-06
-5.4237993026617914e-05,1.172999691334553e-05,-2.309072260686662e-05,7.547783297923161e-06
-5.96907630097121e-05,2.529422454244923e-05,-2.1015115635236725e-05,1.1739383808162529e-05
-5.053534187027253e-05,2.9746792279183865e-05,-1.7992562789004296e-05,1.7345670130453072e-05
-4.533337050816044e-05,3.3297976187895983e-05,-2.0369481717352755e-05,2.2968670236878097e-05
-5.203219916438684e-05,4.5919252443127334e-05,-2.4621185730211437e-05,2.7456440875539556e-05
-6.009470598655753e-05,5.6155698985094205e-05,-2.937194767582696e-05,2.800691800075583e-05
-6.411119102267548e-05,5.3204799769446254e-05,-3.229603316867724e-05,2.377867349423468e-05
-6.477953138528392e-05,4.634485230781138e-05,-3.02956068480853e-05,1.8306813217350282e-05
-6.337775266729295e-05,4.7600260586477816e-05,-2.6312498448533006e-05,1.9408467778703198e-05
-6.004572060192004e-05,4.96300017402973e-05,-2.4359589588129893e-05,2.3453152607544325e-05
-5.6903936638263986e-05,4.763968172483146e-05,-2.4623703211545944e-05,2.389041765127331e-05
-5.4870259191375226e-05,4.508899291977286e-05,-2.4583905542385764e-05,2.3508107915404253e-05
-5.6573109759483486e-05,4.513762178248726e-05,-2.4437462343485095e-05,2.3834996682126075e-05
-6.185002712300047e-05,4.9985515943262726e-05,-2.2883805286255665e-05,2.383941682637669e-05
-6.180922355270013e-05,5.848427827004343e-05,-2.2977159460424446e-05,2.2028225430403836e-05
-5.141595102031715e-05,6.10363349551335e-05,-2.5705247026053257e-05,1.8404565707896836e-05
-3.6336510675027966e-05,5.4856049246154726e-05,-2.5259636458940804e-05,1.691842953732703e-05
-2.8076685339328833e-05,5.302494901116006e-05,-1.9501385395415127e-05,1.9129805878037587e-05
-2.8382270102156326e-05,6.535660941153765e-05,-1.732350210659206e-05,2.3426482584909536e-05
-2.932129063992761e-05,7.854060822864994e-05,-2.0208161004120484e-05,2.663174927874934e-05
-3.2918564102146775e-05,7.594352791784331e-05,-2.2816982891527005e-05,2.4022787329158746e-05
-4.654029544326477e-05,5.6267064792336896e-05,-2.7423557185102254e-05,1.761445491865743e-05
-5.872697147424333e-05,2.715797927521635e-05,-3.223917883588001e-05,1.6175068594748154e-05
-5.776404941570945e-05,6.211377240106231e-06,-3.0215567676350474e-05,2.458242670400068e-05
-5.2024559408891946e-05,3.337639554956695e-06,-2.4240915081463754e-05,3.348338577779941e-05
-5.532854265766218e-05,7.558780907856999e-06,-2.2272342903306708e-05,3.2957868825178593e-05
-6.074220436858013e-05,7.537193596363068e-06,-2.3614296878804453e-05,2.7855181542690843e-05
-6.279129593167454e-05,5.498343398357974e-06,-2.2874408386996947e-05,2.5527084289933555e-05
-6.53143142699264e-05,1.0846050827240106e-05,-1.774443626345601e-05,2.6327883460908197e-05
-5.752919605583884e-05,1.868926119641401e-05,-1.0404682143416721e-05,3.0104740289971232e-05
-4.5381089876173064e-05,2.3468084691558033e-05,-5.458578925754409e-06,3.4030290407827124e-05
-4.369855741970241e-05,2.5521681891405024e-05,-9.76047886069864e-06,3.439318243181333e-05
-5.1185292250011116e-05,2.9844151868019253e-05,-2.100937308568973e-05,3.345676668686792e-05
-5.953272557235323e-05,3.844622915494256e-05,-3.064374323002994e-05,3.1892697734292597e-05
-6.100033351685852e-05,3.857006595353596e-05,-3.7862435419810936e-05,2.6412673832965083e-05
-5.809607682749629e-05,1.8355098291067407e-05,-4.601212276611477e-05,1.8700744476518594e-05
-5.12722872372251e-05,-1.2814182809961494e-05,-5.350474384613335e-05,1.2601188245753292e-05
-4.80335766042117e-05,-3.35772565449588e-05,-5.7627181377029046e-05,1.104753027902916e-05
-5.1067883759969845e-05,-3.420610664761625e-05,-5.525671076611616e-05,1.644065196160227e-05
-5.087126555736177e-05,-1.6111165678012185e-05,-4.775147317559458e-05,2.6124573196284473e-05
-4.5916247472632676e-05,1.0596551874186844e-05,-3.572822970454581e-05,3.248878419981338e-05
-4.213444117340259e-05,3.3587493817321956e-05,-2.042503001575824e-05,3.005138751177583e-05
-4.428753163665533e-05,4.4185628212289885e-05,-3.6517558328341693e-06,2.269872129545547e-05
-4.9460875743534416e-05,4.031618664157577e-05,1.0763453246909194e-05,1.5200248526525684e-05
-5.269415851216763e-05,2.798326386255212e-05,1.8046011973638088e-05,8.237489964812994e-06
-5.2330917242215946e-05,1.94294498214731e-05,1.722421256999951e-05,4.113987870368874e-06
-5.219427839620039e-05,1.807239095796831e-05,8.296614396385849e-06,6.821973329351749e-06
-5.4798532801214606e-05,1.9843682821374387e-05,-6.638539616687922e-06,1.548091859149281e-05
-5.5924996559042484e-05,2.328947084606625e-05,-2.0734267309308052e-05,2.4798437152639963e-05
-4.9132013373309746e-05,2.9083836125209928e-05,-2.9210081265773624e-05,3.227134220651351e-05
-4.165589052718133e-05,3.7703259295085445e-05,-3.613761145970784e-05,3.4860222513088956e-05
-3.8550155295524746e-05,4.570186501950957e-05,-4.4805536163039505e-05,3.1370269425679e-05
-3.822919461526908e-05,4.652817005990073e-05,-5.3787836804986e-05,2.6202164008282125e-05
-3.705030758283101e-05,4.1471812437521294e-05,-5.707471427740529e-05,2.1494623069884256e-05
-2.989012500620447e-05,4.051910218549892e-05,-5.36202423973009e-05,1.826718835218344e-05
-2.5023518901434727e-05,4.574232661980204e-05,-4.7294441174017265e-05,1.4140320672595408e-05
-2.5381857994943857e-05,4.3708998418878764e-05,-4.31664266216103e-05,7.1457620833825786e-06
-3.501643004710786e-05,3.535219366312958e-05,-3.865113467327319e-05,3.606851123549859e-06
-4.759878356708214e-05,2.7526561098056845e-05,-3.554582508513704e-05,6.129299890744733e-06
-5.3711726650362834e-05,2.1060242943349294e-05,-3.580898555810563e-05,1.1500542314024642e-05
-5.6648103054612875e-05,1.7108788597397506e-05,-3.723082772921771e-05,1.690449789748527e-05
-5.333320950740017e-05,1.2562482879729941e-05,-3.7446912756422535e-05,2.2431733668781817e-05
-4.7953679313650355e-05,5.770042207586812e-06,-3.290869790362194e-05,2.7537984351511113e-05
-3.9945611206348985e-05,2.787154471661779e-06,-2.735675298026763e-05,2.981583384098485e-05
-3.2456704502692446e-05,1.810638786992058e-05,-2.7638150640996173e-05,2.8225878850207664e-05
-2.992196641571354e-05,3.585816011764109e-05,-3.497845682431944e-05,2.4051816581049934e-05
-3.3335851185256615e-05,3.3143725886475295e-05,-4.072778028785251e-05,2.0707782823592424e-05
-4.240716225467622e-05,2.0744648281834088e-05,-4.018448089482263e-05,2.0800254787900485e-05
-5.0603925046743825e-05,2.3723463527858257e-05,-3.3668027754174545e-05,2.469032369845081e-05
-5.108697587274946e-05,4.510233338805847e-05,-2.3971710106707178e-05,2.9069738957332447e-05
-4.538722350844182e-05,6.337148079182953e-05,-1.7568847397342324e-05,2.955202216980979e-05
-4.394752613734454e-05,6.825408490840346e-05,-1.702708686934784e-05,2.4697808839846402e-05
-4.644071668735705e-05,7.178764644777402e-05,-1.5803920177859254e-05,2.1216837922111154e-05
-4.643041029339656e-05,8.671416435390711e-05,-9.668248821981251e-06,2.5425559215364046e-05
-4.552134851110168e-05,0.00010602036491036415,-5.985772077110596e-06,3.234275209251791e-05
-4.7771762183401734e-05,0.00010845710494322702,-1.0175963325309567e-05,3.258909418946132e-05
-4.8814799811225384e-05,8.447507570963353e-05,-1.7122469216701575e-05,2.3666241759201512e-05
-4.816725413547829e-05,5.181370579521172e-05,-2.0694105842267163e-05,1.3884081454307307e-05
-5.075345325167291e-05,3.0576164135709405e-05,-1.8462342268321663e-05,1.551824971102178e-05
-5.5817403335822746e-05,1.6782068996690214e-05,-1.4488203305518255e-05,2.6205058020423166e-05
-6.033037061570212e-05,-2.5457804895268055e-06,-1.3140582268533763e-05,3.3027965400833637e-05
-6.313327321549878e-05,-1.7974787624552846e-05,-1.1329553672112525e-05,3.3123196772066876e-05
-6.558836321346462e-05,-5.3325229600886814e-06,-1.196969606098719e-05,3.13261007249821e-05
-6.966517685214058e-05,2.2788677597418427e-05,-1.5943049220368266e-05,2.8264616048545577e-05
-6.876501720398664e-05,3.475498306215741e-05,-1.8117581930710003e-05,2.411385503364727e-05
-6.12314252066426e-05,2.9011738661210984e-05,-2.0978026441298425e-05,2.3415401301463135e-05
-5.298646283335984e-05,2.3462951503461227e-05,-2.414939626760315e-05,2.28727421927033e-05
-4.926887049805373e-05,2.6184659873251803e-05,-2.77764156635385e-05,2.1233265215414576e-05
-4.3596643081400543e-05,2.3138747565099038e-05,-3.1157018383964896e-05,1.9766563127632253e-05
-3.450275835348293e-05,1.9047838577535003e-05,-3.0209561373339966e-05,2.125119681295473e-05
-2.8140004360466264e-05,2.135377326339949e-05,-2.741910248005297e-05,2.5183921025018208e-05
-3.074065534747206e-05,2.8552392905112356e-05,-2.9573709980468266e-05,2.498840694897808e-05
-4.361121682450175e-05,4.304372487240471e-05,-3.461986852926202e-05,1.924705611600075e-05
-4.934518437949009e-05,5.874560883967206e-05,-3.344584547448903e-05,1.3207225492806174e-05
-4.311379962018691e-05,6.916929123690352e-05,-2.8815791665692814e-05,1.4815816030022688e-05
-3.838056363747455e-05,7.551407907158136e-05,-2.7471525754663162e-05,1.9874887584592216e-05
-4.422735582920723e-05,8.184179750969633e-05,-2.8711132472380996e-05,2.295161539223045e-05
-5.100720954942517e-05,8.393520693061873e-05,-2.7057752959080972e-05,2.480129842297174e-05
-4.985590203432366e-05,7.631562039023265e-05,-2.396170748397708e-05,2.499679430911783e-05
-4.6397984988288954e-05,5.782626976724714e-05,-2.2738602638128214e-05,2.230022982985247e-05
-4.500374416238628e-05,3.231613300158642e-05,-2.226380274805706e-05,2.2754706151317805e-05
-4.483924567466602e-05,6.0564161685761064e-06,-2.4557775759603828e-05,2.9445847758324817e-05
-5.334886736818589e-05,-1.4449260561377741e-05,-3.128495154669508e-05,3.610120256780647e-05
-6.817065150244161e-05,-3.270555680501275e-05,-3.772655327338725e-05,3.490953895379789e-05
-7.079882925609127e-05,-4.662424908019602e-05,-3.820727943093516e-05,2.7191885237698443e-05
-5.7557357649784535e-05,-4.6182140067685395e-05,-3.385623494978063e-05,2.3472683096770197e-05
-4.084087777300738e-05,-3.538955934345722e-05,-2.9815024390700273e-05,2.6392945073894225e-05
-2.8583901439560577e-05,-2.5456147341174074e-05,-2.6505273126531392e-05,3.037405804207083e-05
-2.9253207685542293e-05,-2.0875662812613882e-05,-2.7916426915908232e-05,3.040833689738065e-05
-4.3470448872540146e-05,-1.6054396837716922e-05,-3.2931511668721214e-05,2.7561043680179864e-05
-5.803371823276393e-05,-3.0865705866744975e-06,-3.1991257856134325e-05,2.6188545234617777e-05
-6.304857379291207e-05,1.0789556654344779e-05,-2.492739076842554e-05,2.6000769139500335e-05
-5.427424912340939e-05,3.284904596512206e-05,-1.7457219655625522e-05,2.9426000764942728e-05
-4.874447040492669e-05,5.9932630392722785e-05,-1.3196335203247145e-05,3.6759080103365704e-05
-5.31265941390302e-05,6.206513353390619e-05,-1.2112303011235781e-05,3.786538218264468e-05
-5.5382268328685313e-05,4.567619544104673e-05,-1.6640751709928736e-05,3.512970215524547e-05
-5.0094309699488804e-05,4.274177990737371e-05,-2.3645137844141573e-05,3.770205148612149e-05
-4.1310020606033504e-05,5.795500328531489e-05,-2.878573286579922e-05,4.3999254558002576e-05
-4.5393346226774156e-05,6.482595927082002e-05,-3.0031660571694374e-05,4.3451247620396316e-05
-6.080801540520042e-05,5.682477785740048e-05,-2.9179262128309347e-05,3.584288788260892e-05
-6.616683822358027e-05,4.8072302888613194e-05,-2.965675957966596e-05,3.110646866844036e-05
-5.54059624846559e-05,4.4325130147626624e-05,-3.043130891455803e-05,3.155840386170894e-05
-4.5113356463843957e-05,3.8230427890084684e-05,-2.8932588975294493e-05,3.277578070992604e-05
-4.210159750073217e-05,2.6673988031689078e-05,-2.6512461772654206e-05,3.229896174161695e-05
-4.0515096770832315e-05,1.6287795006064698e-05,-2.3863385649747215e-05,3.191639552824199e-05
-4.186931255389936e-05,1.4093313438934274e-05,-2.1216268578427844e-05,3.17631711368449e-05
-4.925468601868488e-05,1.735138357616961e-05,-1.9495357264531776e-05,2.9579870897578076e-05
-5.514612712431699e-05,1.8426489987177774e-05,-1.923342642839998e-05,2.2997272026259452e-05
-5.841003803652711e-05,2.131746441591531e-05,-2.1290872609824874e-05,1.788977169780992e-05
-6.039405707269907e-05,3.43475621775724e-05,-2.1770129023934714e-05,2.0091836631763726e-05
-5.671960025210865e-05,4.864131915383041e-05,-2.2610929590882733e-05,2.2645577701041475e-05
-5.343405791791156e-05,5.633355613099411e-05,-2.5905179427354597e-05,2.028603012149688e-05
-5.4978325351839885e-05,6.16657271166332e-05,-2.5648223527241498e-05,2.1444771846290678e-05
-5.754294397775084e-05,5.9444966609589756e-05,-2.160092662961688e-05,2.7901649445993826e-05
-5.541536302189343e-05,4.8789304855745286e-05,-2.2641654140898027e-05,2.7203406716580503e-05
-4.75677807116881e-05,4.183785495115444e-05,-2.6756342776934616e-05,1.732809323584661e-05
-3.9536178519483656e-05,4.675976015278138e-05,-2.3909477022243664e-05,1.459309714846313e-05
-4.1370811231900007e-05,4.9036621931008995e-05,-1.9999137293780223e-05,1.9842313122353517e-05
-4.769164297613315e-05,3.859504431602545e-05,-1.989255724765826e-05,2.394583134446293e-05
-5.223171319812536e-05,2.429766027489677e-05,-2.2421605535782874e-05,2.4380879040108994e-05
-5.880439130123705e-05,1.666414027567953e-05,-3.018630377482623e-05,2.0252977265045047e-05
-6.17335390415974e-05,1.3224464055383578e-05,-3.4254986530868337e-05,1.7699197996989824e-05
-5.881564720766619e-05,1.3132366802892648e-05,-3.483283580862917e-05,1.8785476640914567e-05
-5.2475748816505075e-05,2.1270661818562075e-05,-3.542512786225416e-05,2.239440982521046e-05
-4.524122050497681e-05,2.5564213501638733e-05,-3.261435995227657e-05,2.6372221327619627e-05
-4.317666753195226e-05,1.5021750186861027e-05,-2.886756556108594e-05,2.5941975763998926e-05
-4.758459544973448e-05,5.942542884440627e-06,-2.645036147441715e-05,2.0773870346602052e-05
-5.669943129760213e-05,1.9626066205091774e-05,-2.7791129468823783e-05,1.753648029989563e-05
-6.421736179618165e-05,4.55404951935634e-05,-3.240346995880827e-05,1.7350173948216252e-05
-6.216125620994717e-05,5.572732334258035e-05,-3.513704359647818e-05,1.895933019113727e-05
-5.3701329306932166e-05,4.24965146521572e-05,-2.9775570510537364e-05,2.0506484361249022e-05
-5.2154089644318447e-05,2.785191645671148e-05,-2.023458364419639e-05,2.07733810384525e-05
-6.031395969330333e-05,2.6048472136608325e-05,-1.809778950701002e-05,2.053205571428407e-05
-6.744151323800907e-05,2.7356965802027844e-05,-2.2192187316250056e-05,2.1890446078032255e-05
-6.677822238998488e-05,2.8799961000913754e-05,-2.406851308478508e-05,2.4371816834900528e-05
-6.0941143601667136e-05,4.003272988484241e-05,-2.544880953792017e-05,2.4923812816268764e-05
-5.5933076509973034e-05,5.46365263289772e-05,-2.9446764528984204e-05,2.2877886294736527e-05
-5.544877421925776e-05,6.23161467956379e-05,-3.17857920890674e-05,1.630121005291585e-05
-5.679036257788539e-05,6.059922088752501e-05,-3.153966463287361e-05,1.044593591359444e-05
-5.50121403648518e-05,4.602221088134684e-05,-3.290293534519151e-05,9.544624845148064e-06
-5.533167131943628e-05,2.076575401588343e-05,-3.265430495957844e-05,1.1251153409830295e-05
-5.855579729541205e-05,-5.34172022526036e-06,-2.9369268304435536e-05,1.1856041055580135e-05
-5.259638783172704e-05,-1.769494338077493e-05,-2.619101360323839e-05,1.0518773706280626e-05
-3.9255013689398766e-05,-6.817984740337124e-06,-2.3627286282135174e-05,8.091394192888401e-06
-3.543823549989611e-05,8.388988135266118e-06,-2.745774145296309e-05,6.4494179241592064e-06
-3.71581845683977e-05,4.749999789055437e-06,-3.112402919214219e-05,7.9395995271625e-06
-4.108027496840805e-05,-2.3619063540536445e-06,-3.002723678946495e-05,1.0029505574493669e-05
-4.5732129365205765e-05,8.672599506098777e-06,-2.9711274692090228e-05,1.2296646673348732e-05
-4.057638579979539e-05,3.05596950056497e-05,-2.5665241992101073e-05,1.8191229173680767e-05
-3.370882768649608e-05,3.437803025008179e-05,-1.8433964214636944e-05,2.461271833453793e-05
-3.71603891835548e-05,1.2974389392184094e-05,-1.6204412531806156e-05,2.8811946322093718e-05
-4.5957967813592404e-05,4.049902599945199e-06,-2.0039735318277963e-05,3.4330591006437317e-05
-5.0790597015293315e-05,3.7083900679135695e-05,-2.6337285817135125e-05,3.814405499724671e-05
-5.005103230359964e-05,8.899274689611048e-05,-3.08867274725344e-05,3.782238854910247e-05
-4.726988117909059e-05,0.0001224497682414949,-2.8103511795052327e-05,3.7329878978198394e-05
-5.074733780929819e-05,0.00012625771341845393,-2.336586476303637e-05,3.5569071769714355e-05
-5.894395872019231e-05,0.00011258905578870326,-2.3319609681493603e-05,3.0734201573068276e-05
-6.48811983410269e-05,9.069492807611823e-05,-2.8272424970055e-05,2.4152164769475348e-05
-6.724678678438067e-05,6.280201341724023e-05,-3.3458927646279335e-05,1.920057911775075e-05
-6.630373536609113e-05,4.074541720910929e-05,-3.378575638635084e-05,1.7349355402984656e-05
-5.919811883359216e-05,4.1327621147502214e-05,-2.9636395993293263e-05,1.7934205970959738e-05
-4.8148693167604506e-05,5.8043144235853106e-05,-2.4876602765289135e-05,1.9068584151682444e-05
-4.111571979592554e-05,6.324314745143056e-05,-2.3419956050929613e-05,2.094428964483086e-05
-4.0692109905648977e-05,4.458668627194129e-05,-2.404967563052196e-05,2.2775819161324762e-05
-4.28063067374751e-05,1.4536853996105492e-05,-2.1988771550240926e-05,2.562203189881984e-05
-4.685818203142844e-05,-2.326314870515489e-06,-1.7730371837387793e-05,3.0112883905530907e-05
-4.995637937099673e-05,7.629638787420845e-08,-1.5396884919027798e-05,3.3233151043532416e-05
-4.8341931687900797e-05,6.835693966422696e-06,-1.4672649740532506e-05,3.52246206603013e-05
-5.083393261884339e-05,8.47577211970929e-06,-1.6732898075133562e-05,3.589157131500542e-05
-5.899010648136027e-05,1.0049204320239369e-05,-2.1463911252794787e-05,3.5944580304203555e-05
-5.736083767260425e-05,1.5128568520594854e-05,-2.572455196059309e-05,3.257995922467671e-05
-4.5532509830081835e-05,1.9061993953073397e-05,-2.8270278562558815e-05,2.4544311600038782e-05
-3.842528531095013e-05,2.0818702978431247e-05,-2.8592061426024884e-05,1.8035669199889526e-05
-3.5561104596126825e-05,2.0268647858756594e-05,-2.823547038133256e-05,1.8966777133755386e-05
-3.222299710614607e-05,2.031242365774233e-05,-2.5179819203913212e-05,2.433310692140367e-05
-2.9003565941820852e-05,2.172091626562178e-05,-2.014306119235698e-05,2.5580395231372677e-05
-2.5444867787882686e-05,1.7859027138911188e-05,-1.7280504835071042e-05,2.4132745238603093e-05
-2.114492963301018e-05,1.0309221579518635e-05,-1.917786903504748e-05,2.63502006419003e-05
-2.523051625757944e-05,8.195723239623476e-06,-2.4880906494217925e-05,2.8345555620035157e-05
-3.93969239667058e-05,1.415359292877838e-05,-2.7881764253834262e-05,2.4495500838384032e-05
-4.9950718675972894e-05,1.610166691534687e-05,-2.484535434632562e-05,1.7793836377677508e-05
-4.580802851705812e-05,1.1820054169220384e-05,-1.7978243704419583e-05,1.4622883099946193e-05
-3.1946201488608494e-05,6.7195446717960294e-06,-1.3363462130655535e-05,1.621169940335676e-05
-1.8603983335196972e-05,-1.5679780744903837e-06,-1.2342919035290834e-05,2.038092861766927e-05
-1.683636219240725e-05,-9.103890988626517e-06,-1.7574320736457594e-05,2.4128308723447844e-05
-2.864822636183817e-05,-2.0250581656000577e-07,-2.711217530304566e-05,2.6058947696583346e-05
-5.042081465944648e-05,2.7390979084884748e-05,-3.4264194255229086e-05,2.7157762815477327e-05
-7.421363261528313e-05,5.4829379223519936e-05,-3.4233624319313094e-05,2.9779814212815836e-05
-8.340913336724043e-05,7.177194493124261e-05,-2.8361468139337376e-05,3.365201337146573e-05
-7.289596396731213e-05,8.109118789434433e-05,-1.9524961317074485e-05,3.505848872009665e-05
-5.728318137698807e-05,8.472154149785638e-05,-1.199032885779161e-05,3.214228854631074e-05
-5.030732791055925e-05,8.068379975156859e-05,-1.2627033356693573e-05,2.5975812604883686e-05
-5.229581438470632e-05,7.246459426824003e-05,-2.0857180061284453e-05,2.0406108887982555e-05
-6.044307883712463e-05,6.316618237178773e-05,-2.8547907277243212e-05,1.8592463675304316e-05
-6.829824997112155e-05,4.824289499083534e-05,-2.872892582672648e-05,2.1929308786639012e-05
-7.051425927784294e-05,3.1269300961866975e-05,-2.7129357476951554e-05,2.2653353880741633e-05
-6.4691441366449e-05,2.7304398827254772e-05,-3.0393863198696636e-05,1.8010008716373704e-05
-5.6442167988279834e-05,4.132648973609321e-05,-3.158459730912e-05,1.731920383463148e-05
-5.162808520253748e-05,5.593028254224919e-05,-2.664138446561992e-05,2.025298454100266e-05
-4.6066543291090056e-05,5.688262535841204e-05,-2.353027775825467e-05,2.230920290458016e-05
-3.994186772615649e-05,5.4382660891860723e-05,-2.412367939541582e-05,2.345053326280322e-05
-4.1074086766457185e-05,6.0191428929101676e-05,-2.6038005671580322e-05,2.4887982362997718e-05
-3.9224352804012597e-05,6.425430183298886e-05,-2.767557089100592e-05,2.6080899260705337e-05
-3.4021883038803935e-05,5.691043770639226e-05,-2.9122764317435212e-05,2.7010686608264223e-05
-3.461245432845317e-05,4.424112557899207e-05,-2.8946162274223752e-05,2.51633464358747e-05
-3.7977857573423535e-05,2.8990663849981502e-05,-2.8671785912592895e-05,1.9856004655594006e-05
-3.943224510294385e-05,1.5788193195476197e-05,-2.9650662327185273e-05,1.666961907176301e-05
-4.407866799738258e-05,9.274393050873186e-06,-2.9004670068388805e-05,1.7177942936541513e-05
-5.048896491643973e-05,1.131496719608549e-05,-2.6889294531429186e-05,1.8100152374245226e-05
-5.043562123319134e-05,1.5917983546387404e-05,-2.406577368674334e-05,2.1591444237856194e-05
-4.1642146243248135e-05,1.7903847037814558e-05,-1.99084806808969e-05,2.7828931706608273e-05
-3.2449512218590826e-05,1.8029826605925336e-05,-1.6916175809456035e-05,3.08972412312869e-05
-3.601037315092981e-05,1.893346052384004e-05,-1.9466941012069583e-05,2.79407777270535e-05
-4.842837734031491e-05,2.2765314497519284e-05,-2.7646950911730528e-05,2.0793489966308698e-05
-5.604768739431165e-05,2.7486583348945715e-05,-3.395543899387121e-05,1.5837915270822123e-05
-5.3852840210311115e-05,3.202154766768217e-05,-3.2957039366010576e-05,1.6343223251169547e-05
-4.463515870156698e-05,3.6013669159729034e-05,-2.6300662284484133e-05,2.0503597625065595e-05
-3.215666220057756e-05,3.3353477192576975e-05,-1.9599125153035857e-05,2.4888033294701017e-05
-2.7714067982742563e-05,2.0375236999825574e-05,-2.1377620214479975e-05,2.5761049982975237e-05
-3.2280917366733775e-05,7.152806574595161e-06,-3.213479430996813e-05,2.08164728974225e-05
-4.3995576561428607e-05,5.720002604903129e-07,-4.069562419317663e-05,1.543671896797605e-05
-5.3090767323737964e-05,8.702898526280478e-07,-4.3085608922410756e-05,1.5770181562402286e-05
-5.4256917792372406e-05,2.3676652745052706e-06,-4.255592284607701e-05,2.014914934989065e-05
-5.735044396715239e-05,4.061702384206001e-06,-3.662510425783694e-05,2.2194873963599093e-05
-5.780469291494228e-05,6.275228315644199e-06,-2.8683383789029904e-05,2.5440440367674455e-05
-5.281719131744467e-05,1.331026760453824e-05,-2.9056678613414988e-05,2.8793976525776088e-05
-5.5595432058908045e-05,2.9762957638013177e-05,-3.705776543938555e-05,2.8741789719788358e-05
-7.120840018615127e-05,5.082394272903912e-05,-4.042965156259015e-05,2.554888851591386e-05
-7.976930646691471e-05,6.649974238825962e-05,-4.024774898425676e-05,2.2530108253704384e-05
-7.038324110908434e-05,6.868057243991643e-05,-4.037774124299176e-05,2.3648377464269288e-05
-5.7126060710288584e-05,6.54254254186526e-05,-3.5311411920702085e-05,2.4561775717302226e-05
-5.0995055062230676e-05,6.0824560932815075e-05,-2.6360647098044865e-05,2.5338196792290546e-05
-5.375122418627143e-05,5.089716432848945e-05,-2.3454691472579725e-05,2.5632800316088833e-05
-5.812733434140682e-05,3.7990590499248356e-05,-2.7587459044298157e-05,2.557728839747142e-05
-5.97724829276558e-05,2.788411802612245e-05,-3.106930307694711e-05,2.456154288665857e-05
-5.878800948266871e-05,2.476046392985154e-05,-2.9678041755687445e-05,2.3935122953844257e-05
-5.7882742112269625e-05,3.093216582783498e-05,-2.6114401407539845e-05,2.41649140662048e-05
-5.808447895105928e-05,4.244138835929334e-05,-2.5435752831981517e-05,2.6893096219282597e-05
-5.602136661764234e-05,4.885085945716128e-05,-2.7278485504211858e-05,2.9734987037954852e-05
-5.1573286327766255e-05,4.4499942305264995e-05,-3.057598223676905e-05,3.163053042953834e-05
-4.942981468047947e-05,3.915450724889524e-05,-3.290899985586293e-05,3.2796950108604506e-05
-5.183615576243028e-05,4.112772876396775e-05,-3.153899888275191e-05,3.316635775263421e-05
-5.5720422096783295e-05,4.33254026575014e-05,-2.788894016703125e-05,3.2628904591547325e-05
-5.4884734709048644e-05,3.7695790524594486e-05,-2.5530194761813618e-05,2.945329288195353e-05
-4.585091664921492e-05,2.6872692615143023e-05,-2.563800626376178e-05,2.5323533918708563e-05
-3.425295290071517e-05,1.9982180674560368e-05,-2.6928413717541844e-05,2.4433886210317723e-05
-2.4642238713568076e-05,1.9642424376797862e-05,-2.262726593471598e-05,2.7479480195324868e-05
-1.7158628907054663e-05,2.1541460228036158e-05,-1.4051283869775943e-05,3.009630017913878e-05
-9.717056855151895e-06,1.7430842490284704e-05,-9.274668627767824e-06,3.1466468499274924e-05
-1.956103687916766e-06,1.124721165979281e-05,-8.884743692760821e-06,2.9444616302498616e-05
-1.2304298252274748e-05,5.184558631299296e-06,-1.3808379662805237e-05,2.4411803678958677e-05
-5.3355557611212134e-05,-4.066764176968718e-06,-2.602844688226469e-05,1.449434148526052e-05
-8.598883869126439e-05,-1.057430654327618e-05,-3.63695144187659e-05,8.841388080327306e-06
-7.72995117586106e-05,-7.82103234087117e-06,-3.17227968480438e-05,1.4306455341284163e-05
-5.5040422012098134e-05,8.465751307085156e-06,-2.2761158106732182e-05,2.310283343831543e-05
-4.795649147126824e-05,3.405282041057944e-05,-2.059642611129675e-05,3.02320986520499e-05
-4.9214675527764484e-05,4.9499216402182356e-05,-2.1615678633679636e-05,3.4525946830399334e-05
-5.2016854169778526e-05,4.1151768527925014e-05,-2.0968869648640975e-05,3.375060987309553e-05
-5.616895577986725e-05,3.0950322980061173e-05,-1.6524878446944058e-05,3.274091795901768e-05
-6.088553709560074e-05,3.6936457036063075e-05,-1.2998948477616068e-05,3.612813088693656e-05
-6.680941442027688e-05,4.9771475460147485e-05,-1.5160990187723655e-05,3.9002847188385203e-05
-7.266272587003186e-05,5.292790592648089e-05,-2.3028011128189974e-05,3.5919398214900866e-05
-7.116624328773469e-05,4.414035356603563e-05,-2.9489528969861567e-05,2.7435129595687613e-05
-6.0572692746063694e-05,3.515149364829995e-05,-2.8527188987936825e-05,2.2757876649848185e-05
-4.846775482292287e-05,3.073930929531343e-05,-2.5364790417370386e-05,2.2848989829071797e-05
-4.268563861842267e-05,2.4825832952046767e-05,-2.7630610929918475e-05,2.365115869906731e-05
-4.3999105400871485e-05,1.873566725407727e-05,-3.135440783808008e-05,2.4164493879652582e-05
-4.803326373803429e-05,2.8150669095339254e-05,-3.0674535082653165e-05,2.5028053642017767e-05
-5.0297290727030486e-05,5.002695615985431e-05,-2.7807622245745733e-05,2.4077189664239995e-05
-4.64916811324656e-05,6.300696259131655e-05,-2.651376780704595e-05,1.9389532099012285e-05
-4.126366548007354e-05,5.7410641602473333e-05,-2.469587889208924e-05,1.4487220141745638e-05
-4.067634654347785e-05,3.8998743548290804e-05,-2.2776281184633262e-05,1.1377630471542943e-05
-4.002279456472024e-05,1.094103845389327e-05,-2.1206855308264494e-05,9.819484148465563e-06
-4.176318543613888e-05,-1.722209526633378e-05,-1.8113396436092444e-05,1.3793071047984995e-05
-4.679871926782653e-05,-2.0911076717311516e-05,-1.5120031093829311e-05,2.2148900825413875e-05
-4.609323150361888e-05,-1.3524439737011562e-06,-1.5188253200904e-05,2.4901801225496456e-05
-4.4339951273286715e-05,1.613927452126518e-05,-1.658858855080325e-05,2.2613454348174855e-05
-4.4004820665577427e-05,2.9433813324430957e-05,-1.3179505003790837e-05,2.4679207854205742e-05
-3.344159631524235e-05,4.366985376691446e-05,-6.0310499065963086e-06,2.892215343308635e-05
-2.2367701603798196e-05,4.909583003609441e-05,-3.417043217268656e-06,2.7170761313755065e-05
-2.5600400476832874e-05,3.9493359508924186e-05,-1.090523710445268e-05,2.1573643607553095e-05
-3.6586490750778466e-05,2.163922727049794e-05,-2.01878556254087e-05,1.4829337487753946e-05
-4.992847243556753e-05,9.891037734632846e-06,-2.4541577658965252e-05,1.294109461014159e-05
-4.8611404054099694e-05,4.353055373940151e-06,-2.3832051738281734e-05,1.2878652341896668e-05
-3.083869523834437e-05,-5.729260010411963e-06,-2.0903720724163577e-05,1.2357389095996041e-05
-1.6079718989203684e-05,-1.5296860510716215e-05,-2.0959983885404654e-05,1.7482429029769264e-05
-2.3935202989378013e-05,-8.994857125799172e-06,-2.769041202554945e-05,1.8670923964236863e-05
-4.4262807932682335e-05,3.058817674173042e-05,-3.6470421036938205e-05,1.4987223948992323e-05
-5.584008613368496e-05,8.772873843554407e-05,-3.7718757084803656e-05,1.2218477422720753e-05
-6.386450695572421e-05,0.00011795170576078817,-3.1558920454699546e-05,1.3020389815210365e-05
-7.335482951020822e-05,0.00010468727850820869,-2.420360397081822e-05,1.5654281014576554e-05
-7.72838102420792e-05,7.316184201044962e-05,-2.0393721570144407e-05,1.5271771189873107e-05
-7.28317245375365e-05,5.4680647735949606e-05,-2.0475839846767485e-05,9.947252692654729e-06
-6.84509941493161e-05,5.8808447647606954e-05,-2.0937428416800685e-05,8.391153642151039e-06
-6.76255949656479e-05,7.537545025115833e-05,-2.058344762190245e-05,1.7653404938755557e-05
-7.482672663172707e-05,8.445350977126509e-05,-2.128155938407872e-05,2.642623621795792e-05
-8.513659849995747e-05,7.49301616451703e-05,-2.2573296519112773e-05,2.787472476484254e-05
-8.290453115478158e-05,5.4581527365371585e-05,-2.3273052647709846e-05,2.6073910703416914e-05
-6.690354348393157e-05,4.5100750867277384e-05,-2.3504548153141513e-05,2.7377333026379347e-05
-5.4274492867989466e-05,5.6205433793365955e-05,-2.3751050321152434e-05,3.3548516512382776e-05
-5.3004503570264205e-05,7.289822679013014e-05,-2.350439172005281e-05,3.722990368260071e-05
-5.946526289335452e-05,7.405556971207261e-05,-2.526175376260653e-05,3.0388024242711253e-05
-6.513687549158931e-05,6.186561222421005e-05,-2.6092322514159605e-05,1.9995692127849907e-05
-6.448488420573995e-05,5.88861366850324e-05,-2.6268678993801586e-05,1.4958870451664552e-05
-5.8358658861834556e-05,6.88101354171522e-05,-2.7303374736220576e-05,1.4903305782354437e-05
-4.752953827846795e-05,7.14613197487779e-05,-2.7379377570468932e-05,1.637848799873609e-05
-3.9806462154956535e-05,5.542942017200403e-05,-3.0292218070826493e-05,1.806220825528726e-05
-4.2369705624878407e-05,2.2153830286697485e-05,-3.242247112211771e-05,2.4263790692202747e-05
-4.6602330257883295e-05,-1.1804479072452523e-05,-3.44495456374716e-05,2.9564875148935243e-05
-4.992503090761602e-05,-2.9904269467806444e-05,-3.7404894101200625e-05,2.7546304409042932e-05
-5.3747527999803424e-05,-3.270371234975755e-05,-3.5656372347148135e-05,2.565969953138847e-05
-5.3232291975291446e-05,-2.8672564440057613e-05,-3.014794856426306e-05,2.7522088203113526e-05
-4.8814759793458506e-05,-2.363991370657459e-05,-2.5429597371839918e-05,3.063865369767882e-05
-4.382622500997968e-05,-2.656382457644213e-05,-2.514259540475905e-05,3.158223262289539e-05
-4.1581013647373766e-05,-3.2318806916009635e-05,-2.9148241083021276e-05,3.186108006048016e-05
-4.2305084207328036e-05,-2.7632866476778872e-05,-3.4546512324595824e-05,3.334066059323959e-05
-4.238802648615092e-05,-1.4773348993912805e-05,-3.547828600858338e-05,3.209195347153582e-05
-3.990465484093875e-05,-4.481384792143217e-07,-3.2115836802404374e-05,2.9648745112353936e-05
-3.694762199302204e-05,1.1588073903112672e-05,-2.976713949465193e-05,2.982170190080069e-05
-3.52942843164783e-05,1.6033818610594608e-05,-3.0157509172568098e-05,3.0937535484554246e-05
-3.729928721440956e-05,1.316433281317586e-05,-3.3537820854689926e-05,2.7317882995703258e-05
-4.088774585397914e-05,1.4719067621626891e-05,-3.91985522583127e-05,1.995498860196676e-05
-4.4406886445358396e-05,2.6078005248564295e-05,-4.1944251279346645e-05,1.813601738831494e-05
-4.9021811719285324e-05,4.1575774957891554e-05,-3.9068403566488996e-05,2.3033655452309176e-05
-5.513529686140828e-05,4.876234015682712e-05,-3.462056702119298e-05,2.5226179786841385e-05
-5.714716826332733e-05,4.7664376324974e-05,-3.3052772778319195e-05,2.301373751834035e-05
-5.1531395001802593e-05,4.613048804458231e-05,-3.487790309009142e-05,2.3786380552337505e-05
-4.074050229974091e-05,4.965563493897207e-05,-3.340970943099819e-05,3.0274093660409562e-05
-3.356783417984843e-05,6.290795136010274e-05,-2.5720983103383332e-05,3.643621676019393e-05
-3.78546719730366e-05,7.110584556357935e-05,-2.074664007523097e-05,3.231057780794799e-05
-4.361147148301825e-05,5.500153929460794e-05,-2.4301498342538252e-05,2.4677212422830053e-05
-4.625525980372913e-05,1.2275854714971501e-05,-2.9320846806513146e-05,1.9184175471309572e-05
-5.4743217333452776e-05,-1.8265045582666062e-05,-3.2219446438830346e-05,1.343615531368414e-05
-6.189283885760233e-05,-4.2930946619890165e-06,-3.061474490095861e-05,1.2985260582354385e-05
-5.707463060389273e-05,2.5062096028705128e-05,-2.3327238523052074e-05,1.7022759493556805e-05
-4.7404020733665675e-05,4.210930273984559e-05,-2.3870868972153403e-05,1.9965706087532453e-05
-4.1748837247723714e-05,4.681161226471886e-05,-2.9067290597595274e-05,2.024423702096101e-05
-3.651002771221101e-05,4.9646285333437845e-05,-2.8366079277475365e-05,2.439446143398527e-05
-3.2989526516757905e-05,4.482139047468081e-05,-2.6172596335527487e-05,3.220211874577217e-05
-3.615456444094889e-05,3.753624696400948e-05,-2.3818920453777537e-05,3.467787246336229e-05
-4.4127162254881114e-05,3.0716677429154515e-05,-2.5870742319966666e-05,3.002656922035385e-05
-4.6594250306952745e-05,2.1778121663373895e-05,-3.0535884434357285e-05,2.6233235985273495e-05
-3.8235131796682253e-05,1.635790613363497e-05,-3.0506929761031643e-05,2.6864054234465584e-05
-3.119562825304456e-05,1.8929893485619687e-05,-2.690306428121403e-05,2.9851582439732738e-05
-3.4090920962626114e-05,3.160682535963133e-05,-2.7865640731761232e-05,3.0023351428098977e-05
-4.366639404906891e-05,4.4143096602056175e-05,-3.311858017696068e-05,2.6603251171763986e-05
-5.029619569540955e-05,4.4100142986280844e-05,-3.574461516109295e-05,2.417588075331878e-05
-5.2819181291852146e-05,3.0126928322715685e-05,-3.3884560252772644e-05,2.592006785562262e-05
-5.2934978157281876e-05,2.3118569515645504e-05,-2.9612989237648435e-05,2.9776176234008744e-05
-5.5388660257449374e-05,3.518210360198282e-05,-2.752647560555488e-05,3.130682307528332e-05
-6.388509063981473e-05,5.346675970940851e-05,-2.7927051633014344e-05,2.930188929894939e-05
-7.055854075588286e-05,5.557153781410307e-05,-2.6470785087440163e-05,2.5809968065004796e-05
-6.843648588983342e-05,4.359258309705183e-05,-2.1358706362661906e-05,2.4886103346943855e-05
-6.312064215308055e-05,3.5979232052341104e-05,-1.6374360711779445e-05,2.328152368136216e-05
-5.821806189487688e-05,4.4051619624951854e-05,-1.4755931260879152e-05,1.9477218302199617e-05
-5.3648931498173624e-05,6.059643055777997e-05,-1.71435149241006e-05,1.7421505617676303e-05
-4.873208672506735e-05,7.07178987795487e-05,-2.0464174667722546e-05,2.038691491179634e-05
-4.581922621582635e-05,6.812839274061844e-05,-2.6419806090416387e-05,2.4605424187029712e-05
-4.69991828140337e-05,4.5666620280826464e-05,-3.5883313103113323e-05,2.1888152332394384e-05
-5.529179543373175e-05,7.99537156126462e-06,-4.189866012893617e-05,1.3608770132123027e-05
-6.458305870182812e-05,-1.157729002443375e-05,-4.3222858948865905e-05,1.3667562598129734e-05
-5.888134182896465e-05,2.5162989913951606e-06,-3.870925138471648e-05,2.1853320504305884e-05
-4.8824880650499836e-05,2.8757864129147492e-05,-3.376608219696209e-05,2.218585905211512e-05
-4.636582525563426e-05,4.1569230234017596e-05,-3.103063500020653e-05,1.593912202224601e-05
-4.8463971324963495e-05,3.4675955248530954e-05,-2.28230346692726e-05,1.1705671568051912e-05
-5.088743637315929e-05,1.7752205167198554e-05,-1.6056957974797115e-05,1.0201028089795727e-05
-5.40306355105713e-05,3.2647249099682085e-06,-1.5658477423130535e-05,1.339891787210945e-05
-5.275469447951764e-05,-5.12388396600727e-06,-1.6138219507411122e-05,1.8246999388793483e-05
-4.671939313993789e-05,-4.755640020448482e-06,-1.5521580280619673e-05,2.16659846046241e-05
-4.326208363636397e-05,9.11351617105538e-06,-1.4978646504459903e-05,2.1784759155707434e-05
-4.3005038605770096e-05,2.6734007406048477e-05,-1.343375970463967e-05,2.0980412955395877e-05
-3.801702769123949e-05,3.577240931917913e-05,-1.1249226190557238e-05,2.3363041691482067e-05
-2.854204285540618e-05,4.4145584979560226e-05,-7.255969649122562e-06,2.9221957447589375e-05
-2.5703024221002124e-05,6.261877570068464e-05,-4.53676148026716e-06,3.370592094142921e-05
-3.405923052923754e-05,7.903124787844718e-05,-9.22143863135716e-06,3.456437116255984e-05
-4.657435783883557e-05,7.839718455215916e-05,-1.84878063009819e-05,3.3535321563249454e-05
-5.522132050828077e-05,5.8749265008373186e-05,-2.447076258249581e-05,2.981293982884381e-05
-5.778330159955658e-05,3.27176894643344e-05,-2.552415753598325e-05,2.4689472411409952e-05
-5.6072425650199875e-05,1.749955117702484e-05,-2.7714695534086786e-05,1.9456196241662838e-05
-5.713343489333056e-05,1.574177440488711e-05,-3.073216794291511e-05,1.511958907940425e-05
-6.01159299549181e-05,1.8802569684339687e-05,-3.2058644137578085e-05,1.4811171240580734e-05
-6.276528438320383e-05,2.9850878490833566e-05,-3.3095140679506585e-05,2.1704283426515758e-05
-6.35500909993425e-05,4.559185617836192e-05,-3.279939846834168e-05,2.9727611035923474e-05
-5.817688725073822e-05,4.676643220591359e-05,-3.064368138439022e-05,3.0011084163561463e-05
-4.925347457174212e-05,3.4729619073914364e-05,-2.9536928195739165e-05,2.5394205295015126e-05
-4.330563388066366e-05,2.8600688892765902e-05,-2.8391432351781987e-05,2.384514664299786e-05
-3.6044966691406444e-05,3.097284570685588e-05,-2.8040505640092306e-05,2.6036454073619097e-05
-3.132580968667753e-05,3.326034493511543e-05,-2.965557541756425e-05,2.5236309738829732e-05
-3.700927845784463e-05,2.3401280486723408e-05,-3.2245879992842674e-05,2.1997433577780612e-05
-4.184158387943171e-05,1.7193935491377488e-05,-3.360124901519157e-05,2.6115254513570108e-05
-4.284359602024779e-05,3.987958552897908e-05,-3.34531650878489e-05,2.836290150298737e-05
-4.9093236157204956e-05,6.7818422394339e-05,-3.589272455428727e-05,2.480426337569952e-05
-5.056829468230717e-05,7.209704926935956e-05,-3.4732758649624884e-05,2.173078064515721e-05
-4.063660162501037e-05,5.63849534955807e-05,-2.5027738956850953e-05,2.2943746444070712e-05
-3.4767370379995555e-05,3.631815707194619e-05,-1.353530115011381e-05,2.8001912141917273e-05
-4.017055834992789e-05,2.6190176868112758e-05,-1.0013968676503282e-05,3.3272666769335046e-05
-4.678586628870107e-05,2.6948153390549123e-05,-1.430427346349461e-05,3.504695632727817e-05
-4.961019294569269e-05,2.6977293600793928e-05,-1.9458570022834465e-05,2.8969412596779875e-05
-5.518351463251747e-05,1.8837954485206865e-05,-2.3413927920046262e-05,2.0643930838559754e-05
-6.289090379141271e-05,7.122133411030518e-06,-2.5739394914126024e-05,1.559256634209305e-05
-6.229244900168851e-05,1.7386045101375203e-06,-2.861476423277054e-05,1.6399844753323123e-05
-5.329057967173867e-05,1.0855383152374998e-05,-3.0308608984341845e-05,2.3395070456899703e-05
-4.805086791748181e-05,3.118449239991605e-05,-2.8933496651006863e-05,3.243016544729471e-05
-5.014293492422439e-05,4.6146713430061936e-05,-2.6899795557255857e-05,3.422661029617302e-05
-5.1807102863676846e-05,4.507113408180885e-05,-2.73445293714758e-05,2.8482747438829392e-05
-4.953262032358907e-05,3.740220927284099e-05,-3.0966984922997653e-05,2.3120754121919163e-05
-4.888102921540849e-05,3.156430830131285e-05,-3.405128518352285e-05,2.2072799765737727e-05
-4.8896894440986216e-05,2.417261930531822e-05,-3.456629201536998e-05,2.1964737243251875e-05
-4.5769404096063226e-05,1.570769200043287e-05,-3.4330394555581734e-05,1.9805536794592626e-05
-4.549993900582194e-05,1.4892912076902576e-05,-3.04815148410853e-05,1.4896954780851956e-05
-5.4738291510147974e-05,2.764787495834753e-05,-2.789806057990063e-05,1.2876750588475261e-05
-7.060177449602634e-05,4.177405935479328e-05,-3.064447082579136e-05,1.1086563972639851e-05
-7.749360520392656e-05,4.795612767338753e-05,-3.510383248794824e-05,7.2520433604950085e-06
-7.11635293555446e-05,4.3629464926198125e-05,-3.9037182432366535e-05,5.274831892165821e-06
-7.036745228106156e-05,3.77271935576573e-05,-4.0406743210041896e-05,8.679987217874441e-07
-8.172056550392881e-05,3.2158830435946584e-05,-3.610811472753994e-05,4.527764758677222e-06
-8.228905062424019e-05,2.9435270334943198e-05,-2.709770888031926e-05,1.5760972019052133e-05
-6.748550367774442e-05,3.4553890145616606e-05,-2.258453969261609e-05,2.3131840862333775e-05
-5.612688619294204e-05,4.267857002560049e-05,-2.1123085389262997e-05,2.502081770217046e-05
-4.59594011772424e-05,5.1671107939910144e-05,-1.842851997935213e-05,2.557594962127041e-05
-3.322293923702091e-05,5.724063885281794e-05,-1.4137716789264232e-05,2.7130752641824074e-05
-2.6260384402121417e-05,5.622295429930091e-05,-1.3297620171215385e-05,2.8455584470066242e-05
-2.7605063223745674e-05,4.430591798154637e-05,-1.8024364180746488e-05,3.0345281629706733e-05
-3.2474606996402144e-05,3.140231274301186e-05,-2.23948409256991e-05,3.345641744090244e-05
-3.4972053981618956e-05,2.0988994947401807e-05,-2.3491460524383e-05,3.592318535083905e-05
-3.841417856165208e-05,8.929016985348426e-06,-2.3648530259379186e-05,3.447261406108737e-05
-5.046312799095176e-05,3.4352662936498746e-08,-2.5772969820536673e-05,2.9745355277555063e-05
-5.886014332645573e-05,5.3466933422896545e-06,-2.9982582418597303e-05,2.7816311558126472e-05
-5.2620751375798136e-05,1.8532417016103864e-05,-3.370649574208073e-05,3.165073576383293e-05
-4.214169894112274e-05,2.3475098714698106e-05,-3.7199159123701975e-05,3.385905802133493e-05
-3.544809078448452e-05,1.7708018276607618e-05,-3.93166919820942e-05,2.9688249924220145e-05
-3.34149990521837e-05,1.0552702406130265e-05,-3.52195420418866e-05,2.4691371436347254e-05
-3.844542152364738e-05,1.2962385881110094e-05,-2.7463782316772267e-05,2.44085840677144e-05
-5.003077967558056e-05,2.764042619674001e-05,-2.32751826843014e-05,2.7099496946902946e-05
-6.062828470021486e-05,5.022274854127318e-05,-2.2634929337073117e-05,3.110977922915481e-05
-6.052787648513913e-05,6.61969679640606e-05,-1.8825596271199174e-05,3.5552158806240186e-05
-5.278056050883606e-05,6.593184662051499e-05,-1.7036989447660744e-05,3.989425385952927e-05
-4.2846750147873536e-05,5.246216096566059e-05,-1.9601642634370364e-05,4.1812905692495406e-05
-3.683744216687046e-05,3.982612906838767e-05,-2.1552201360464096e-05,4.0217993955593556e-05
-4.389266177895479e-05,4.683686711359769e-05,-2.6919222364085726e-05,3.713593469001353e-05
-4.36967566201929e-05,7.54033972043544e-05,-3.551899135345593e-05,3.508766894810833e-05
-2.5002689653774723e-05,9.543736086925492e-05,-3.9021135307848454e-05,3.457414641161449e-05
-1.5251405784511007e-05,8.379024075111374e-05,-3.7181445804890245e-05,3.358027970534749e-05
-2.3460077500203624e-05,4.951813752995804e-05,-3.667454802780412e-05,2.7711068469216116e-05
-3.406679752515629e-05,2.3120037440094166e-05,-3.58811448677443e-05,2.3948199668666348e-05
-3.526397995301522e-05,1.912912557600066e-05,-3.5057764762314036e-05,2.5446128347539343e-05
-3.367685349076055e-05,2.0444311303435825e-05,-3.346021912875585e-05,2.404857696092222e-05
-3.9841750549385324e-05,2.0529610992525704e-05,-2.916320772783365e-05,2.188712460338138e-05
-4.769199949805625e-05,2.00013837456936e-05,-2.5001992980833165e-05,1.862971475929953e-05
-5.4044252465246245e-05,1.4073219972488005e-05,-2.3797729227226228e-05,1.4672910765511915e-05
-6.189915438881144e-05,4.052933036291506e-06,-2.509728801669553e-05,1.4811347682552878e-05
-7.151534373406321e-05,-2.905194378399756e-06,-2.5163415557472035e-05,1.7754407963366248e-05
-7.517061749240384e-05,9.632668707126868e-07,-2.2908901883056387e-05,2.001771645154804e-05
-6.83062244206667e-05,1.0791656677611172e-05,-2.079612204397563e-05,2.1972560716676526e-05
-5.58257925149519e-05,1.181387051474303e-05,-2.2999460270511918e-05,2.3777627575327642e-05
-4.612718112184666e-05,-5.5750124374753796e-06,-2.8462178306654096e-05,2.5400831873412244e-05
-4.434460061020218e-05,-3.049452971026767e-05,-3.216967161279172e-05,2.4677157853147946e-05
-4.8344587412429973e-05,-4.455081216292456e-05,-3.0899835110176355e-05,1.9570672520785592e-05
-5.2464991313172504e-05,-4.3814448872581124e-05,-2.9435565011226572e-05,1.558109579491429e-05
-5.1462695410009474e-05,-3.316683796583675e-05,-3.1077561288839206e-05,1.5259236533893272e-05
-4.9540260079083964e-05,-1.4108030882198364e-05,-3.156686943839304e-05,1.3342144484340679e-05
-5.158029671292752e-05,9.120171853282955e-06,-2.603567008918617e-05,1.0718753401306458e-05
-5.758270708611235e-05,2.7431899070506915e-05,-1.744797918945551e-05,1.1367926163075026e-05
-6.747675070073456e-05,3.144923903164454e-05,-1.520619753136998e-05,1.0406505680293776e-05
-7.457302854163572e-05,2.3940914616105147e-05,-1.8864388039219193e-05,7.210993771877838e-06
-7.447716780006886e-05,2.4063439923338592e-05,-1.874769077403471e-05,7.530799393862253e-06
-7.825853390386328e-05,3.841620127786882e-05,-1.5632931535947137e-05,9.035330549522769e-06
-8.279939356725663e-05,4.8998583224602044e-05,-1.749592411215417e-05,1.2403278560668696e-05
-7.218824612209573e-05,4.71734456368722e-05,-1.8292805179953575e-05,1.991111275856383e-05
-6.236175977392122e-05,3.519363235682249e-05,-1.663726106926333e-05,2.875397876778152e-05
-6.0109105106676e-05,1.5068747416080441e-05,-1.8473951058695093e-05,3.005729195137974e-05
-5.1871538744308054e-05,1.6452876252515125e-06,-1.85612661880441e-05,2.3070841052685864e-05
-4.0240160160465166e-05,5.767971742898226e-06,-1.8426066162646748e-05,1.9651388356578536e-05
-3.069844751735218e-05,2.2510419512400404e-05,-2.1488298443728127e-05,2.2975562387728132e-05
-2.9727605578955263e-05,3.068339356104843e-05,-2.6187164621660486e-05,2.5885852664941922e-05
-3.6276745959185064e-05,2.121430770785082e-05,-2.7536983907339163e-05,2.524985211493913e-05
-4.0215756598627195e-05,3.0722803785465658e-06,-2.240498361061327e-05,2.5323335648863576e-05
-4.330928641138598e-05,-1.5414410881930962e-05,-1.5282203094102442e-05,2.3027700081001967e-05
-4.928651105728932e-05,-2.6679121219785884e-05,-1.3695289453607984e-05,1.8616306988405995e-05
-4.7578509111190215e-05,-1.6164753105840646e-05,-1.721763692330569e-05,1.9328901544213295e-05
-3.6994897527620196e-05,1.7157290130853653e-05,-1.780628190317657e-05,2.9315559004317038e-05
-3.3665528462734073e-05,5.054194843978621e-05,-1.4358076441567391e-05,3.64735460607335e-05
-4.689174966188148e-05,6.86522907926701e-05,-1.443309065507492e-05,3.0477300242637284e-05
-7.010700937826186e-05,7.705470488872379e-05,-1.8435041056363843e-05,1.675203748163767e-05
-8.885346323950216e-05,7.646905578440055e-05,-2.1068675778224133e-05,7.030325832602102e-06
-9.23317129490897e-05,6.278668297454715e-05,-2.4623943318147212e-05,8.287035598186776e-06
-8.011319005163386e-05,4.8424553824588656e-05,-2.787826451822184e-05,1.8994853235199116e-05
-5.659833914251067e-05,5.6209210015367717e-05,-2.5710638510645367e-05,2.8620892408071086e-05
-3.733967605512589e-05,8.805520337773487e-05,-2.0804773157578893e-05,2.785133801808115e-05
-3.763063432415947e-05,0.00011491167242638767,-2.2006375729688443e-05,2.1208821635809727e-05
-5.690737452823669e-05,0.00011708102829288691,-2.9837099646101706e-05,1.7433207176509313e-05
-7.165329589042813e-05,0.00010109831055160612,-3.659591675386764e-05,2.108981971105095e-05
-5.797108678962104e-05,7.573000038973987e-05,-3.533800190780312e-05,2.6185267415712588e-05
-3.141363777103834e-05,4.805082062375732e-05,-2.7947726266575046e-05,2.9393542718025856e-05
-2.380459409323521e-05,3.8488513382617384e-05,-2.3231243176269345e-05,2.9388185794232413e-05
-3.191916403011419e-05,4.8030546167865396e-05,-2.5109460693784058e-05,2.880051761167124e-05
-3.746975926333107e-05,6.490190571639687e-05,-2.9261744202813134e-05,2.9715685741393827e-05
-3.990039476775564e-05,7.658360118512064e-05,-3.318622839287855e-05,3.088515950366855e-05
-3.887559432769194e-05,7.934466702863574e-05,-3.398110129637644e-05,3.411096258787438e-05
-3.7262143450789154e-05,7.804352208040655e-05,-3.1824012694414705e-05,3.6815006751567125e-05
-3.733770427061245e-05,7.67676901887171e-05,-2.9910694138379768e-05,3.336989902891219e-05
-4.130502566113137e-05,7.910763815743849e-05,-2.774562017293647e-05,3.0749775760341436e-05
-4.114645707886666e-05,8.36148246889934e-05,-2.7528516511665657e-05,3.779275721171871e-05
-3.069033846259117e-05,8.745861850911751e-05,-3.160013147862628e-05,4.430116678122431e-05
-2.201144707214553e-05,7.548881694674492e-05,-3.526228101691231e-05,3.771186311496422e-05
-2.769104867184069e-05,5.12018013978377e-05,-3.7416379200294614e-05,2.215095446445048e-05
-4.1734601836651564e-05,3.119210305158049e-05,-3.886265403707512e-05,1.2363218047539704e-05
-4.9077261792263016e-05,1.8142864064429887e-05,-4.125193299842067e-05,1.3202628906583413e-05
-5.06767573824618e-05,2.6847678782360163e-06,-4.347885987954214e-05,1.52089778566733e-05
-5.538238474400714e-05,-1.4374199963640422e-05,-4.2630232201190665e-05,1.1241777428949717e-05
-5.792516458313912e-05,-2.0450226656976156e-05,-4.09252752433531e-05,3.7096172036399366e-06
-4.888548210146837e-05,-1.125850212702062e-05,-3.8033471355447546e-05,8.559385378248408e-07
