-3.114739593002014e-05,2.620855411805678e-05,-1.775506643753033e-05,3.525701686157845e-05
-2.9554743377957493e-05,2.2157242710818537e-05,-4.0739037103776354e-06,3.8074151234468445e-05
-3.090713653364219e-05,9.186944225803018e-06,6.564030627487227e-06,4.604837522492744e-05
-3.54474141204264e-05,1.2508252439147327e-05,1.4088531315792352e-05,5.200782834435813e-05
-3.6477762478170916e-05,2.511928505555261e-05,2.366035732848104e-05,4.868836185778491e-05
-3.43820865964517e-05,3.17243866447825e-05,2.8566862965817563e-05,4.4258365960558876e-05
-3.3526626793900505e-05,3.096392174484208e-05,2.4665487217134796e-05,3.82396683562547e-05
-3.118537279078737e-05,2.4514118194929324e-05,1.7024438420776278e-05,3.842029764200561e-05
-2.938634679594543e-05,1.9590555893955752e-05,1.1480304237920791e-05,4.410580004332587e-05
-2.784475509542972e-05,2.212605977547355e-05,1.2126629371778108e-05,4.789071681443602e-05
-2.4320586817339063e-05,3.136584200547077e-05,1.6313115338562056e-05,4.8873789637582377e-05
-1.8766500943456776e-05,3.465911140665412e-05,1.599417009856552e-05,4.916018224321306e-05
-1.5382960555143654e-05,2.9551672923844308e-05,1.1593236195039935e-05,5.241703547653742e-05
-1.2875461834482849e-05,2.7645965019473806e-05,6.8604394982685335e-06,5.778721606475301e-05
-9.364041034132242e-06,3.031454252777621e-05,3.977875167038292e-06,6.0296006267890334e-05
-4.415072908159345e-06,3.2304746127920225e-05,3.169141109538032e-07,5.994673119857907e-05
-1.2930488537676865e-06,2.9114402423147112e-05,-5.8225773500453215e-06,5.7566488976590335e-05
-1.7330389709968586e-06,1.9194545529899187e-05,-1.3658016541739926e-05,5.005360799259506e-05
-4.132747562834993e-06,7.168912361521507e-06,-2.068569665425457e-05,4.102708044229075e-05
-1.1205278497072868e-05,5.225709628575714e-06,-2.532241342123598e-05,3.667821147246286e-05
-1.8334752894588746e-05,1.4986936548666563e-05,-2.6308214728487656e-05,3.832510265056044e-05
-2.0402025256771594e-05,1.933660860231612e-05,-2.4689674319233745e-05,4.4553918996825814e-05
-2.2160780645208433e-05,1.2328669072303455e-05,-2.22274011321133e-05,5.2962222980568185e-05
-2.8700977054541e-05,1.298311872233171e-05,-1.8678587366594e-05,5.844146653544158e-05
-3.388048935448751e-05,2.492921157681849e-05,-1.234403589478461e-05,6.080956882215105e-05
-3.216416735085659e-05,3.001972618221771e-05,-4.836266271013301e-06,6.158052565297112e-05
-2.9777773306705058e-05,2.6948873710352927e-05,-1.7747544234225643e-06,6.442630547098815e-05
-2.7671394491335377e-05,2.0125073206145316e-05,-3.894652763847262e-06,6.6246728238184e-05
-2.7609710741671734e-05,1.4767201719223522e-05,-1.0013235623773653e-05,6.299649976426736e-05
-2.9723605621256866e-05,1.6727855836506933e-05,-1.2992451047466602e-05,5.7582139561418444e-05
-3.0315579351736233e-05,2.5765250029508024e-05,-1.504436932009412e-05,5.3879295592196286e-05
-3.340987677802332e-05,2.653842602740042e-05,-2.0017565475427546e-05,5.576412149821408e-05
-3.3895077649503946e-05,1.2493145732150879e-05,-2.295840204169508e-05,6.0803646192653105e-05
-3.3677446481306106e-05,2.0704462713183602e-06,-2.1068954083602875e-05,6.579712498933077e-05
-3.165254383930005e-05,5.766639787907479e-06,-1.6148003851412795e-05,6.856146501377225e-05
-2.9971764888614416e-05,1.59873889060691e-05,-1.254247581528034e-05,6.809121987316757e-05
-2.943177787528839e-05,1.4919139175617602e-05,-1.038973823597189e-05,6.728748849127442e-05
-2.9439614081638865e-05,2.7496685106598306e-06,-6.83987173033529e-06,6.438547279685736e-05
-3.259530058130622e-05,5.27513634551724e-07,-8.393819257435098e-07,6.153469439595938e-05
-3.544292849255726e-05,1.137706476583844e-05,3.6211422411724925e-06,6.142940401332453e-05
-3.430160359130241e-05,1.8113116311724298e-05,3.260625817347318e-06,6.490532541647553e-05
-2.9095381250954233e-05,1.6869929822860286e-05,-1.4622913795392378e-06,7.054838351905346e-05
-2.6309280656278133e-05,1.7613334421184845e-05,-7.258631740114652e-06,7.395089778583497e-05
-2.607540591270663e-05,2.3802831492503174e-05,-1.4256535905587953e-05,7.29092353140004e-05
-2.4577324438723736e-05,3.03302858810639e-05,-2.1505658878595568e-05,6.602551002288237e-05
-2.0116809537285008e-05,3.413438025745563e-05,-2.3382472136290744e-05,5.793337550130673e-05
-1.951933700183872e-05,3.934917913284153e-05,-1.9324013919685967e-05,5.533280273084529e-05
-2.4491035219398327e-05,5.079366383142769e-05,-1.59461451403331e-05,5.758512997999787e-05
-2.5739989723660983e-05,6.391199713107198e-05,-1.8651866412255913e-05,5.817017881781794e-05
-2.103438055200968e-05,6.813246000092477e-05,-2.236408727185335e-05,5.534983574762009e-05
-1.8840346456272528e-05,5.84944173169788e-05,-2.0275208953535184e-05,5.151657751412131e-05
-1.897723996080458e-05,2.7416659577284008e-05,-1.666901516728103e-05,4.925396933685988e-05
-1.775481359800324e-05,3.046421170438407e-06,-1.6786636479082517e-05,5.0331891543464735e-05
-1.4710143659613095e-05,1.9202550902264193e-05,-1.5528625226579607e-05,5.785980829386972e-05
-9.02732335816836e-06,5.478517050505616e-05,-6.140385266917292e-06,6.639348430326208e-05
-3.43514352607599e-06,6.881069566588849e-05,3.097484750469448e-06,6.881435547256842e-05
-2.0608217710105237e-06,5.5533149861730635e-05,9.992580089601688e-06,6.741817924194038e-05
-2.056376388281933e-06,3.932535764761269e-05,1.2560693903651554e-05,6.779214891139418e-05
-2.4603218662377913e-06,3.523135092109442e-05,8.681108738528565e-06,6.980314356042072e-05
-9.10160451894626e-06,4.475388413993642e-05,4.597591669153189e-06,7.040462514851242e-05
-1.8127822841051966e-05,4.3064555939054117e-05,1.2840082490583882e-06,7.341446325881407e-05
-2.2260064724832773e-05,3.658432251540944e-05,-1.3546291484090034e-06,8.108108886517584e-05
-2.3227166821016e-05,3.270012530265376e-05,-1.1055040886276402e-05,8.45384638523683e-05
-2.273818972753361e-05,2.1081214072182775e-05,-2.4477341867168434e-05,7.943489617900923e-05
-2.538550688768737e-05,4.358014393801568e-06,-3.549145185388625e-05,7.377340079983696e-05
-3.14030003210064e-05,-1.8024054952547885e-05,-3.760184335988015e-05,7.401795301120728e-05
-3.949090023525059e-05,-3.853979069390334e-05,-3.120427209069021e-05,7.692520739510655e-05
-4.8334404709748924e-05,-3.8180289266165346e-05,-2.1774987544631585e-05,7.867947715567425e-05
-5.1842966058757156e-05,-1.2328513548709452e-05,-1.209479432873195e-05,8.122481085592881e-05
-5.0839946197811514e-05,1.4690419448015746e-05,-3.112182412223774e-06,8.125611202558503e-05
-5.208029324421659e-05,3.231923983548768e-05,5.079357379145222e-06,7.770821684971452e-05
-6.0042799304937944e-05,4.2414489143993706e-05,1.048015292326454e-05,7.044963422231376e-05
-6.785843288525939e-05,3.879548603435978e-05,1.1569844900805037e-05,5.688839155482128e-05
-6.468838546425104e-05,2.4060756913968362e-05,6.1924806686874945e-06,4.324984911363572e-05
-4.7103352699195966e-05,2.1064504835521802e-05,-8.345979836121842e-07,4.0607814298709854e-05
-2.954674891952891e-05,3.401629510335624e-05,-1.766206310094276e-06,4.381420149002224e-05
-2.4532087991246954e-05,4.785155033459887e-05,2.1650516828231048e-06,4.358953083283268e-05
-2.5614230253268033e-05,4.953266397933476e-05,1.7725429870552034e-06,4.264216113369912e-05
-2.6071142201544717e-05,3.960459434892982e-05,-9.980287813959876e-07,4.3387204641476274e-05
-2.599584695417434e-05,2.9962982807774097e-05,-3.0692519885633374e-06,5.054477514931932e-05
-2.6351803171564825e-05,3.0106331905699335e-05,-4.538935627351748e-06,6.20347200310789e-05
-3.096478394581936e-05,3.5240882425569e-05,-1.0866464435821399e-05,6.743465200997889e-05
-3.759232276934199e-05,3.2825471862452105e-05,-1.7198586647282355e-05,6.861096335342154e-05
-3.620221104938537e-05,2.7259291528025642e-05,-1.9598031940404326e-05,6.735392526024953e-05
-3.058457878069021e-05,3.350185579620302e-05,-2.2441827240982093e-05,6.035783371771686e-05
-2.5210347303072922e-05,4.936689219903201e-05,-2.555642458901275e-05,5.2399980631889775e-05
-1.4809274034632836e-05,6.163585203466937e-05,-3.099875175394118e-05,4.9251550080953166e-05
-4.598282430379186e-06,6.069502705940977e-05,-3.2786894735181704e-05,5.202064130571671e-05
2.665837826043571e-07,4.465365782380104e-05,-2.917787423939444e-05,5.7391451264265925e-05
1.1615854873525677e-06,2.3401777070830576e-05,-2.5405675842193887e-05,6.0190290241735056e-05
4.636864559870446e-06,8.771168722887523e-06,-2.333994780201465e-05,5.8417190302861854e-05
1.011442691378761e-05,6.1121140788600314e-06,-2.103155384247657e-05,5.6129516451619565e-05
1.1200119843124412e-05,6.813092113588937e-06,-1.852853165473789e-05,5.4190644732443616e-05
6.726729225192685e-06,-7.776851020935283e-07,-1.5611887647537515e-05,5.093946310807951e-05
-1.4899951565894298e-06,-1.6637575754430145e-05,-1.18398120321217e-05,4.704603270511143e-05
-1.1504078429425135e-05,-3.3132906537503004e-05,-1.1022765647794586e-05,4.20928918174468e-05
-2.1755688067059964e-05,-3.742698754649609e-05,-1.1678853297780734e-05,3.612369982874952e-05
-3.059138180105947e-05,-2.1419782569864765e-05,-1.2038799468427896e-05,3.1531275453744456e-05
-3.687586649903096e-05,1.7385675619152607e-06,-1.4482065125775989e-05,2.9092072509229183e-05
-3.917309004464187e-05,5.4796382755739614e-06,-2.1079218640807085e-05,2.79392388620181e-05
-4.119924415135756e-05,-8.631040145701263e-06,-2.6738311134977266e-05,2.3293114281841554e-05
-4.35826150351204e-05,-1.2579040230775718e-05,-2.644401138240937e-05,1.6962683730525896e-05
-4.58359754702542e-05,-2.753947455857997e-06,-2.4115110136335716e-05,1.9047120076720603e-05
-5.0270758947590366e-05,9.466872143093497e-06,-2.721371129155159e-05,2.832408790709451e-05
-5.546821921598166e-05,1.3147232493793126e-05,-3.0114902983768843e-05,3.6649449612013996e-05
-5.540241181734018e-05,1.0288019439030904e-05,-2.59338576142909e-05,4.164256461081095e-05
-5.017214425606653e-05,6.686095275654225e-06,-2.0323790522525087e-05,4.221417839289643e-05
-4.520942457020283e-05,3.013557943631895e-06,-2.0611345462384634e-05,4.143789192312397e-05
-4.622639971785247e-05,4.158726824243786e-06,-2.390102599747479e-05,4.609029201674275e-05
-4.8413370677735656e-05,1.2296707609493751e-05,-2.323050648556091e-05,5.3233881772030145e-05
-4.47645979875233e-05,2.3685648557147942e-05,-1.8339333109906875e-05,6.0314330767141655e-05
-4.158373485552147e-05,4.247063770890236e-05,-7.3500295911799185e-06,6.618084444198757e-05
-3.791404378716834e-05,6.562558701261878e-05,7.590686436742544e-06,6.805714656366035e-05
-3.148306495859288e-05,7.840595935704187e-05,1.7611462681088597e-05,6.363189459079877e-05
-2.5500117772025988e-05,6.66149499011226e-05,1.6120418877108023e-05,5.46592527825851e-05
-1.9597820937633514e-05,4.0696191717870533e-05,9.89466116152471e-06,5.3745337936561555e-05
-1.2871216313214973e-05,2.9044520488241687e-05,4.1402718125027604e-06,6.047746865078807e-05
-7.156344963732408e-06,2.3813065126887523e-05,-1.9250501281931065e-07,6.518872396554798e-05
-4.712663212558255e-06,2.0519186364253983e-05,-4.088856258022133e-06,6.911416130606085e-05
-2.730421329033561e-06,1.792639886843972e-05,-8.971029274107423e-06,7.081793592078611e-05
-4.463662662601564e-06,1.0500371899979655e-05,-1.069532117980998e-05,6.95606941008009e-05
-1.1799192179751117e-05,3.5909392863686662e-06,-6.203744760568952e-06,6.754519563401118e-05
-1.9800982045126148e-05,1.4744992768100929e-05,-6.568382673322049e-07,6.34898169664666e-05
-2.116060204571113e-05,4.0207887650467455e-05,1.780466163836536e-06,5.875430360902101e-05
-1.739955405355431e-05,5.3353378461906686e-05,-7.607932275277562e-07,6.215336179593578e-05
-1.6211695765377954e-05,4.6866796765243635e-05,-5.554124072659761e-06,7.303283928195015e-05
-2.1323916371329688e-05,3.493731128401123e-05,-8.075689038378187e-06,8.058913954300806e-05
-3.006961014762055e-05,2.4800916435196996e-05,-6.604215741390362e-06,7.69124599173665e-05
-3.402988295420073e-05,1.9530660210875794e-05,-4.843271312893194e-07,6.756380025763065e-05
-3.3056938264053315e-05,2.9469012588378973e-05,7.836461918486748e-06,6.253127503441647e-05
-3.160880442010239e-05,3.968286910094321e-05,9.934115041687619e-06,6.091603063396178e-05
-2.970799687318504e-05,3.687980643007904e-05,4.0715763134357985e-06,6.18000776739791e-05
-2.7318543288856745e-05,2.964105260616634e-05,-3.422586587475962e-06,6.523344927700236e-05
-2.6815316232386976e-05,3.342309719300829e-05,-6.467869752668776e-06,6.931639654794708e-05
-2.344864515180234e-05,3.9298407500609756e-05,-5.375786713557318e-06,7.057016046019271e-05
-1.6854304703883827e-05,2.807001510518603e-05,-6.8387466853891965e-06,6.81405799696222e-05
-1.498740675742738e-05,4.3956788431387395e-06,-1.049279762810329e-05,6.559330358868465e-05
-1.8455453755450435e-05,-1.1429960068198852e-05,-1.5993597116903402e-05,6.118175951996818e-05
-2.0683806724264286e-05,-1.2398686521919444e-05,-1.750833871483337e-05,5.7518544053891674e-05
-1.8545872080721892e-05,8.804717026578146e-07,-1.566116770845838e-05,5.759685154771432e-05
-2.0396259060362354e-05,1.6857185983099043e-05,-1.4483774975815322e-05,5.77182145207189e-05
-2.765164026641287e-05,2.294793193868827e-05,-1.4316511624201667e-05,6.13712691119872e-05
-2.9137052479200065e-05,2.554835009505041e-05,-7.804224878782406e-06,6.719589146086946e-05
-2.5744489903445356e-05,2.8672560802078806e-05,3.1071142529981444e-06,7.17167422408238e-05
-2.4307193598360755e-05,2.9914936021668836e-05,1.1974065273534507e-05,7.053461013128981e-05
-2.6371773856226355e-05,3.038482100237161e-05,1.393748516420601e-05,6.741745892213657e-05
-2.9254897526698187e-05,3.417329571675509e-05,1.2965320820512716e-05,6.63670216454193e-05
-3.1198236683849245e-05,3.6342280509416014e-05,1.3862437299394514e-05,6.510241655632854e-05
-3.293001282145269e-05,3.134597864118405e-05,1.4007874597155023e-05,6.418181146727875e-05
-3.409067358006723e-05,2.880316969822161e-05,1.1686539437505417e-05,6.40551807009615e-05
-3.162705615977757e-05,4.221366179990582e-05,5.409936875366839e-06,6.456342089222744e-05
-2.601218147901818e-05,6.30342256044969e-05,-3.1688377930549905e-06,6.410317291738465e-05
-2.277552630403079e-05,6.840330024715513e-05,-1.5036034710647073e-05,6.30421272944659e-05
-2.4923510864027776e-05,5.635467459796928e-05,-2.4395018044742756e-05,6.365977606037632e-05
-2.8006816137349233e-05,4.117270509595983e-05,-2.490828228474129e-05,6.326998118311167e-05
-2.7973961550742388e-05,3.6091900255996734e-05,-1.8274757167091593e-05,6.042778113624081e-05
-2.8026654035784304e-05,4.2489056795602664e-05,-1.3944024431111757e-05,6.296623178059235e-05
-2.9271552193677053e-05,5.103247531224042e-05,-1.1357861694705207e-05,7.197291415650398e-05
-3.0150129532557912e-05,5.607924686046317e-05,-5.495942332345294e-06,7.689394988119602e-05
-3.190112329320982e-05,5.401179805630818e-05,6.532982865792292e-07,7.147288852138445e-05
-3.1365307222586125e-05,4.789451486431062e-05,-1.0997407571267104e-06,6.556177686434239e-05
-2.8599875804502517e-05,4.2800555092981085e-05,-7.793688382662367e-06,6.350661715259776e-05
-2.6755753424367867e-05,4.0478131268173456e-05,-1.0045204362540971e-05,6.482854951173067e-05
-2.383212085987907e-05,2.6573678042041138e-05,-8.652140422782395e-06,6.897472485434264e-05
-1.854009497037623e-05,-2.1741595901403343e-07,-1.1210217053303495e-05,7.082768570398912e-05
-1.8003844161285087e-05,-2.2152702513267286e-05,-1.5826020899112336e-05,6.767928425688297e-05
-2.6900745069724508e-05,-2.5148015993181616e-05,-1.8253982489113696e-05,6.209876300999895e-05
-3.198024569428526e-05,-1.5539295418420807e-05,-1.7707243387121707e-05,5.513704309123568e-05
-2.5064849978662096e-05,-1.2529680134321097e-05,-1.763675027177669e-05,5.178405262995511e-05
-1.4518219359160867e-05,-6.532841325679328e-06,-2.0416646293597296e-05,5.0430586270522326e-05
-1.0348777323088143e-05,8.05366289569065e-06,-2.4586177460150793e-05,4.9441649025538936e-05
-9.527549082122277e-06,2.0069152014912106e-05,-3.0101422453299165e-05,5.3175102948443964e-05
-1.0295110769220628e-05,2.0311985281296074e-05,-3.375676169525832e-05,5.499201870406978e-05
-1.5218963199004065e-05,1.04128794191638e-05,-2.992347981489729e-05,5.2887171477777883e-05
-2.3175178284873255e-05,-6.453998139477335e-06,-2.034629142144695e-05,5.092108403914608e-05
-2.9910725061199628e-05,-2.2151918528834358e-05,-1.2387065908114891e-05,5.4106785682961345e-05
-3.3547104976605624e-05,-2.2513635485665873e-05,-1.0543684766162187e-05,5.442220935947262e-05
-3.485291381366551e-05,-1.5209284356387798e-05,-1.2515691196313128e-05,4.5420641981763765e-05
-3.49696128978394e-05,-1.3335235962586012e-05,-1.3697969734494109e-05,3.456299236859195e-05
-3.6137331335339695e-05,-1.5049577996251173e-05,-1.1705618817359209e-05,3.184743763995357e-05
-4.0140716009773314e-05,-1.9286328551970655e-06,-5.4679026106896345e-06,3.985257717431523e-05
-4.1460240026935935e-05,2.8056978408130817e-05,-3.227516174320044e-07,5.099253758089617e-05
-3.4365668398095295e-05,5.0022757932310924e-05,-5.514419143537452e-08,5.871518442290835e-05
-2.6262046958436258e-05,5.081913695903495e-05,-5.916856935073156e-06,6.426666368497536e-05
-2.192285865021404e-05,4.7400819312315434e-05,-1.1706916666298639e-05,6.641290383413434e-05
-2.008637966355309e-05,5.281822450342588e-05,-1.060415252140956e-05,6.352290802169591e-05
-2.081381535390392e-05,5.8017787523567677e-05,-5.3514636420004535e-06,5.992260412313044e-05
-2.0166588001302443e-05,5.2578561735572293e-05,-4.336281108408002e-06,5.6039090850390494e-05
-1.575465103087481e-05,4.6880395530024543e-05,-7.4988433880207594e-06,5.171851080376655e-05
-1.1442522918514442e-05,5.1410181185929105e-05,-7.917405127955135e-06,5.1916333177359775e-05
-8.55750113260001e-06,5.338543633115478e-05,-2.572321818661294e-06,5.856001007487066e-05
-8.87951046024682e-06,4.713805901701562e-05,3.3728235848684562e-06,6.361171108437702e-05
-1.6830957974889316e-05,4.526908742263913e-05,6.214640961843543e-06,6.241763185244054e-05
-2.6821880965144373e-05,5.385236727306619e-05,2.43228623730829e-06,6.074397242628038e-05
-3.329657920403406e-05,6.0481077525764704e-05,-6.241724804567639e-06,6.325997674139217e-05
-3.7667083233827725e-05,5.149828939465806e-05,-1.1466800970083568e-05,6.490429223049432e-05
-3.430311335250735e-05,4.198380702291615e-05,-1.0963483873638324e-05,6.615091115236282e-05
-2.8165462936158292e-05,4.485142198973335e-05,-5.846498879691353e-06,7.036416354821995e-05
-3.036841553694103e-05,4.369451562524773e-05,-1.1407128113205545e-06,7.55214859964326e-05
-4.1452320147072896e-05,3.0469862394966185e-05,-2.682512104001944e-06,7.868753164075315e-05
-5.012923065805808e-05,1.9619837985374033e-05,-1.2547998267109506e-05,7.836594159016386e-05
-5.0307196943322197e-05,2.3952041374286637e-05,-2.1055748220533133e-05,7.511216244893149e-05
-4.454663576325402e-05,3.670566366054118e-05,-2.1253723389236256e-05,7.150518649723381e-05
-3.89786837331485e-05,5.055086512584239e-05,-1.9622691979748197e-05,6.77744610584341e-05
-3.755022771656513e-05,5.308803520165384e-05,-2.461940675857477e-05,6.203859084052965e-05
-4.0911570977186784e-05,3.929938975488767e-05,-3.216137338313274e-05,5.521047205547802e-05
-4.351725146989338e-05,2.106449937855359e-05,-3.466504858806729e-05,5.3672909416491166e-05
-3.810122507275082e-05,1.0654782272467855e-05,-3.203717642463744e-05,6.173559813760221e-05
-3.0283241358119994e-05,7.614179935444554e-07,-3.076965003856458e-05,6.672673771390691e-05
-2.7133384719491005e-05,-1.0778283467516303e-05,-3.5501598176779225e-05,5.950615741312504e-05
-2.6295083443983458e-05,-1.48075632750988e-05,-3.685908450279385e-05,4.858367537963204e-05
-2.1460889911395498e-05,-1.3717583897232544e-05,-2.878532905015163e-05,4.351677489466965e-05
-1.539390541438479e-05,-1.3499165106622968e-05,-1.7009533621603623e-05,4.778393486049026e-05
-1.2061108463967685e-05,-2.1096742784720846e-05,-8.433631592197344e-06,5.611647793557495e-05
-8.608788448327687e-06,-2.9312532205949537e-05,-4.703468675870681e-06,6.647727423114702e-05
-4.773269665747648e-06,-2.6008121494669467e-05,6.027902941241337e-07,7.706044561928138e-05
-5.500286533788312e-06,-4.933642685500672e-06,1.6618303561699577e-05,8.600480214226991e-05
-7.384412015198905e-08,1.918464658956509e-05,3.744654532056302e-05,8.912159682950005e-05
7.331818778766319e-06,2.862552173610311e-05,4.679823177866638e-05,8.044380228966475e-05
9.585872930983896e-07,2.610827868920751e-05,3.649888458312489e-05,7.776066922815517e-05
-1.297347444051411e-05,9.876648618956096e-06,1.2700606930593494e-05,8.064445137279108e-05
-2.3438085918314755e-05,-1.0932817531283945e-06,-1.0851627848751377e-05,7.206716691143811e-05
-2.6735206120065413e-05,-4.842220278078457e-06,-2.6207882910966873e-05,6.259472866076976e-05
-3.1241030228557065e-05,-8.875297680788208e-06,-3.776623634621501e-05,6.366050365613773e-05
-3.875982656609267e-05,-1.512458879915357e-06,-5.069053077022545e-05,7.111730519682169e-05
-4.359985905466601e-05,6.399925950972829e-06,-5.748917465098202e-05,7.630867912666872e-05
-4.4508647988550365e-05,5.803209205623716e-06,-5.595233233179897e-05,7.417559390887618e-05
-4.37234302808065e-05,-3.073627112826216e-06,-5.012571273255162e-05,6.827517790952697e-05
-4.5461307308869436e-05,-6.336516889859922e-06,-3.904533150489442e-05,6.020558430464007e-05
-5.056790905655362e-05,-3.608608039940009e-06,-2.08266810659552e-05,5.560888166655786e-05
-5.6367753131780773e-05,-3.3247961255256087e-06,7.375575705736992e-07,5.344496821635403e-05
-5.754764060839079e-05,-8.948991307988763e-06,1.847745261329692e-05,4.9738326197257265e-05
-5.315413000062108e-05,-1.1021707905456424e-05,3.072074105148204e-05,4.802781404578127e-05
-4.3716452637454495e-05,2.186482561228331e-06,3.686507261591032e-05,4.733442983706482e-05
-2.6639549105311744e-05,2.3168464394984767e-05,3.503374682622962e-05,4.3729411117965356e-05
-1.3480438383339788e-06,4.135247945669107e-05,2.2351425286615267e-05,3.436856422922574e-05
1.993496152863372e-05,5.878669981029816e-05,1.9637463992694393e-06,2.0788364054169506e-05
2.5262350391130894e-05,6.57597920508124e-05,-1.4629752513428684e-05,2.27647069550585e-06
1.5445428289240226e-05,6.304649286903441e-05,-2.4189868781832047e-05,-3.0083418096182868e-05
6.421018383662158e-07,6.513636617455631e-05,-3.575082519091666e-05,-6.15076714893803e-05
-9.142961062025279e-06,6.0162783483974636e-05,-4.595067730406299e-05,-5.9257370594423264e-05
-2.2185076886671595e-05,4.307742710807361e-05,-4.253667066222988e-05,-3.1031828257255256e-05
-3.8963218685239553e-05,2.760082315944601e-05,-2.2131554942461662e-05,-3.314865807624301e-06
-4.2519441194599494e-05,3.745914364117198e-05,1.0884836228797212e-05,1.6085819879663177e-05
-3.125433067907579e-05,6.82623649481684e-05,4.054377131978981e-05,2.9401433494058438e-05
-2.34971030295128e-05,8.068401803029701e-05,4.9091871915152296e-05,3.397458931431174e-05
-2.844141454261262e-05,6.906213820911944e-05,3.244662002543919e-05,3.0361810786416754e-05
-3.57471544703003e-05,5.852086906088516e-05,8.206886377593037e-06,2.242811387986876e-05
-3.581649434636347e-05,6.77406060276553e-05,-8.731436537345871e-06,1.6587384379818104e-05
-2.4539136575185694e-05,9.170494740828872e-05,-1.9519733541528694e-05,1.9199243979528546e-05
-6.777272574254312e-06,0.00010218520765192807,-2.5093284421018325e-05,2.5363040549564175e-05
7.992845894477796e-06,9.7082564025186e-05,-3.023793215106707e-05,2.962542203022167e-05
1.774282100086566e-05,7.722670125076547e-05,-3.582696081139147e-05,3.386346361367032e-05
2.252017475257162e-05,4.900281419395469e-05,-3.812060094787739e-05,3.687934440677054e-05
1.802958649932407e-05,1.8405769878881983e-05,-3.776773519348353e-05,3.914246553904377e-05
7.358413313340861e-06,-6.879718057462014e-06,-3.771498813875951e-05,4.526023622020148e-05
-2.5673516574897803e-06,-1.708389027044177e-05,-3.5321681934874505e-05,5.590163345914334e-05
-1.373191025777487e-05,-1.2174229595984798e-05,-2.6592173526296392e-05,6.819284317316487e-05
-2.8103582735639066e-05,9.265935432267725e-07,-1.7353670045849867e-05,8.464269922114909e-05
-4.196929876343347e-05,2.0155175661784597e-05,-1.2842237993027084e-05,0.0001028880724334158
-4.6836212277412415e-05,4.435137452674098e-05,-1.1384524441382382e-05,0.00011248752707615495
-4.274887396604754e-05,6.47779816063121e-05,-1.099092150980141e-05,0.00011059043026762083
-3.932605977752246e-05,7.607229053974152e-05,-1.4000724149809685e-05,0.00010284691234119236
-4.420380719238892e-05,7.203400309663266e-05,-1.9842223991872743e-05,9.90717817330733e-05
-5.744778172811493e-05,5.6271004723384976e-05,-2.2680060283164494e-05,9.978590969694778e-05
-7.063163502607495e-05,3.873583773383871e-05,-1.5805700968485326e-05,9.835492528509349e-05
-7.179545355029404e-05,2.7671223506331444e-05,4.879111088484933e-07,9.828728070715442e-05
-5.97625294176396e-05,1.9339777281857096e-05,1.3831483556714375e-05,0.0001022442156681791
-4.4714783143717796e-05,1.3823435438098386e-05,1.7998083421844058e-05,0.00010315624967915937
-3.366575401742011e-05,9.961664545699023e-06,1.5110190361156128e-05,0.00010298057168256491
-3.2253996323561296e-05,6.473869689216372e-07,7.266775810421677e-06,0.00010340997687308118
-3.315533103886992e-05,-7.599300261063036e-06,8.168393833329901e-06,0.00010863964416785166
-2.3317712475545704e-05,-1.4486307009065058e-05,1.5060826626722701e-05,0.00010996381024597213
-1.2045915354974568e-05,-1.4906161595718004e-05,1.384930783387972e-05,9.72025518422015e-05
-4.0437994357489515e-06,2.2354570319294e-06,6.879399279569043e-06,8.470459579257295e-05
3.0908333314982883e-07,2.812121601891704e-05,-3.771488536585821e-06,7.679824193473905e-05
9.67923597272602e-07,4.376983633846976e-05,-1.74321739905281e-05,7.054532034089789e-05
-6.472708946603234e-07,3.0817725928500295e-05,-2.9310114769032225e-05,5.5079912272049114e-05
-9.148576282314025e-06,1.764000262483023e-05,-3.6120483855484053e-05,3.376189124537632e-05
-2.0236899217707105e-05,1.3763552487944253e-05,-4.125024497625418e-05,2.170457628380973e-05
-2.29617471632082e-05,4.601196906151017e-06,-5.010376844438724e-05,1.245230214408366e-05
-1.571700704516843e-05,-1.2726944078167435e-05,-6.117391603766009e-05,1.3863061667507282e-06
-6.244973064895021e-06,-2.9540902687585913e-05,-6.679727812297642e-05,-8.210378837247845e-06
1.426869573606382e-07,-3.305561767774634e-05,-6.267227581702173e-05,-5.22643586009508e-06
2.150445880033658e-06,-1.797827280825004e-05,-5.0491133151808754e-05,1.2160793630755506e-05
-5.998029450893227e-07,6.279745775827905e-06,-3.286683568148874e-05,3.3013206120813265e-05
-8.19150864117546e-06,2.8751905119861476e-05,-7.3522764978406485e-06,4.585431088344194e-05
-1.4834945432085078e-05,5.3185922297416255e-05,2.889574898290448e-05,5.114778468851e-05
-1.6279245755868033e-05,7.50827748561278e-05,6.66092528263107e-05,5.777899787062779e-05
-1.6160855011548847e-05,8.354891906492412e-05,8.231877291109413e-05,6.780129479011521e-05
-2.0614654204109684e-05,7.060285861371085e-05,6.337946251733229e-05,7.859302422730252e-05
-2.9111515686963685e-05,3.994759390479885e-05,3.2810185075504705e-05,8.958432590588927e-05
-3.4043434425257146e-05,4.761106993100839e-06,1.573183726577554e-05,9.738485823618248e-05
-3.62865612260066e-05,-1.3689251318282913e-05,3.928117166651646e-06,0.00010001673217630014
-4.2834715713979676e-05,-1.685864117462188e-05,-1.4333374565467238e-05,9.917868737829849e-05
-4.125632767681964e-05,-6.458749794546748e-06,-3.15721335937269e-05,9.751366451382637e-05
-2.9467002605088055e-05,1.8012487998930737e-05,-3.934390770155005e-05,0.00010064824164146557
-2.3148611944634467e-05,3.578679388738237e-05,-4.672761497204192e-05,0.00010023154754890129
-3.118772656307556e-05,2.912912896135822e-05,-5.64903202757705e-05,9.42819970077835e-05
-4.3035000999225304e-05,1.1581309991015587e-05,-5.9418747696327046e-05,9.12194955162704e-05
-5.119690831634216e-05,5.651299034070689e-06,-5.263682032818906e-05,8.943711873143911e-05
-5.461623004521243e-05,2.279865657328628e-05,-4.7065739636309445e-05,8.583840826759115e-05
-5.563601735047996e-05,5.316790702636354e-05,-4.292885205359198e-05,7.937644113553688e-05
-6.034352918504737e-05,7.438453030772507e-05,-2.4929855499067344e-05,7.27705773897469e-05
-6.197689071996137e-05,5.7430803281022236e-05,6.134487193776295e-06,7.411735714413226e-05
-6.154438597150147e-05,-4.102598722965922e-06,4.282211739337072e-05,8.604372123954818e-05
-5.6017222959781066e-05,-5.3483425290323794e-05,7.561691018054262e-05,0.00010409399692434818
-4.6574587031500414e-05,-3.799340993282385e-05,8.978654659586027e-05,0.00011889403685927391
-3.6926525353919715e-05,1.4252469782150001e-06,7.130225276341662e-05,0.00012512443936429918
-2.931581184384413e-05,1.059854548657313e-05,2.8526728783617727e-05,0.00012203078949823976
-2.2909933250048198e-05,6.319772182905581e-06,-1.3615313946502283e-05,0.00011692614498315379
-1.8570692191133276e-05,2.4456283426843584e-05,-3.551398913259618e-05,0.00011956899106735364
-1.630555561860092e-05,6.057358405087143e-05,-3.567045496311039e-05,0.00012612064892891794
-1.241244808625197e-05,9.0481094957795e-05,-2.50283264904283e-05,0.00012394117948133498
-7.718602319073398e-06,9.852599032456055e-05,-1.4218413525668439e-05,0.00011026569700334221
-2.361406359341345e-06,7.599101081723347e-05,-9.00062241271371e-06,9.587979729985818e-05
-3.663108145701699e-06,2.878155282814987e-05,-9.905653314490337e-06,8.374613389605656e-05
-1.972884092538152e-05,-1.624294964130968e-05,-1.3063189726381097e-05,6.30885042482987e-05
-4.484275632421486e-05,-3.4147273254347965e-05,-1.195365530293202e-05,3.232779636164196e-05
-5.972334838588722e-05,-1.864628939074464e-05,-4.6332784222613554e-06,6.894231319165556e-06
-5.413082544691861e-05,2.4707453121664003e-05,2.739214551183977e-06,-9.157399290415924e-06
-3.75185591110494e-05,5.850748493685387e-05,1.9994207889340032e-07,-2.971922731376253e-05
-2.3462300305254757e-05,5.9102356317453086e-05,-9.826470886764582e-06,-5.4645784985041246e-05
-1.8854681911761872e-05,3.910038140020333e-05,-2.2135947801871225e-05,-6.0700647736666724e-05
-1.7358957848045975e-05,1.7613001546123996e-05,-3.523281338857487e-05,-3.2253734389087185e-05
-1.4093257050262764e-05,9.027001397043932e-06,-4.0169248677557334e-05,1.4442065548792016e-05
-8.34200454846723e-06,6.425435003620805e-06,-3.5906228731619194e-05,4.652093775803223e-05
-3.5946416119259084e-06,1.6947634549069335e-06,-3.247769200243056e-05,5.000726378057152e-05
-8.97671725397231e-06,1.9621993487817235e-06,-3.0790419259574264e-05,4.461207572603598e-05
-9.722790309751872e-06,1.5312749383156188e-05,-3.030079278687481e-05,4.510514918365516e-05
-4.039256054966245e-06,3.6851444747298956e-05,-2.77494837064296e-05,4.12436893384438e-05
-2.0851282442890806e-06,4.113392060389742e-05,-2.2883466954226606e-05,3.425376780796796e-05
-9.334266906080302e-06,2.3439260985469446e-05,-2.389281326031778e-05,3.13893033307977e-05
-2.3756823793519288e-05,1.3359750710151275e-06,-3.032936729141511e-05,3.4137254260713235e-05
-4.050004281452857e-05,-7.279703368112678e-06,-3.796481541940011e-05,3.7296638765838e-05
-5.305111699271947e-05,-6.391635906766169e-06,-4.519742651609704e-05,3.4790613426594064e-05
-5.722355854231864e-05,-2.400111043243669e-06,-4.572216494125314e-05,2.9169190383981913e-05
-5.821951708639972e-05,4.444144451554166e-06,-3.632091102190316e-05,2.750444400589913e-05
-6.0155580285936594e-05,1.6509451597812586e-05,-1.946418524312321e-05,2.9207229090388864e-05
-6.526790093630552e-05,2.7585225325310603e-05,-3.0921760298951995e-06,2.8310492780292407e-05
-6.530194514198229e-05,3.07701739075128e-05,4.8863580559554975e-06,2.6568101020529866e-05
-5.41381050425116e-05,3.0262148356996477e-05,2.7294381652609445e-06,2.5510718842269853e-05
-3.3379859814886004e-05,2.838686850736849e-05,-2.3670825157751096e-06,2.423420846753288e-05
-1.4130966519587673e-05,1.998157131311018e-05,6.823761964369623e-07,2.3419950593961403e-05
-3.6254871247365372e-06,-2.0158017832727637e-06,1.3529277566703968e-05,2.77209092018893e-05
9.003377954286407e-07,-2.4147164367605e-05,2.7905443857889622e-05,3.688115975819528e-05
8.153935596055817e-06,-2.607985879876651e-05,3.100380126852542e-05,4.576956416713074e-05
1.752026946633123e-05,-4.673453986470122e-06,1.7106509403674863e-05,5.3568295697914436e-05
2.3991580746951513e-05,2.4100269001792185e-05,-2.7764874630520353e-06,6.491974636446685e-05
2.272754136356525e-05,5.0111069867853075e-05,-1.4965219634177629e-05,7.630408799741417e-05
1.8234215531265363e-05,6.770883192075416e-05,-2.0534072973532602e-05,8.079768304014578e-05
1.1433533472882118e-05,8.699834870640188e-05,-2.3344458895735443e-05,8.156593685271218e-05
4.559341050480725e-06,9.94667352642864e-05,-2.5292898499174044e-05,7.688350160606205e-05
7.337328042922309e-06,9.261305240215734e-05,-1.897629590530414e-05,7.069644925650209e-05
9.933675755746663e-06,8.944469300331548e-05,-6.470828338933643e-06,7.471515709767118e-05
3.6023786833538907e-06,8.832587627694011e-05,9.204177331412211e-07,8.022691326914355e-05
-1.0749961802503094e-05,6.352717173285782e-05,4.6084230120868597e-07,7.798095612088218e-05
-2.516531640139874e-05,7.051191005302826e-06,-6.870791821711464e-06,7.265546446433291e-05
-3.1648600270273164e-05,-4.628675014828332e-05,-1.4950519471312873e-05,6.870542711112648e-05
-3.4905380744021386e-05,-5.224323467700742e-05,-2.1263911548885517e-05,6.762453995179385e-05
-3.740313331945799e-05,-2.8923745048814453e-05,-2.435714122839272e-05,6.821621354902163e-05
-3.617547554313205e-05,-4.636112862499431e-06,-2.447137921990361e-05,6.924250919837505e-05
-3.497457510093227e-05,1.2555594366858713e-05,-2.3290462195291184e-05,6.486249912995845e-05
-3.930760431103408e-05,1.90033097169362e-05,-2.4903069061110727e-05,5.761407010140829e-05
-4.9484930059406906e-05,1.653718572924845e-05,-2.4389173631789163e-05,6.058614235371351e-05
-5.5972377595026046e-05,1.450962827220792e-05,-9.762266927282326e-06,7.611153705511242e-05
-5.929209874011576e-05,1.6901098206290044e-05,1.659114786889404e-05,9.037814743351191e-05
-6.353081698762253e-05,2.363524617976509e-05,3.6531841033138335e-05,9.037815470946953e-05
-6.189222040120512e-05,3.223440580768511e-05,3.8496782508445904e-05,8.011573663679883e-05
-5.023515041102655e-05,3.8908627175260335e-05,3.255787669331767e-05,7.201502012321725e-05
-3.8239057175815105e-05,5.27385163877625e-05,2.7117805075249635e-05,6.854675302747637e-05
-3.586689490475692e-05,6.926724017830566e-05,1.9173918190062977e-05,6.565891089849174e-05
-4.0961105696624145e-05,7.30739047867246e-05,1.0856626431632321e-05,6.64402759866789e-05
-4.4197175157023594e-05,7.81901107984595e-05,8.21438243292505e-06,7.150434976210818e-05
-4.1713636164786294e-05,0.00010392114199930802,6.858957931399345e-06,7.271362119354308e-05
-4.005307346233167e-05,0.00012290423910599202,2.0820230020035524e-06,6.388303881976753e-05
-3.853222369798459e-05,0.0001050680730259046,-5.405295723903691e-06,5.15350402565673e-05
-3.399763591005467e-05,6.577352178283036e-05,-1.719818465062417e-05,4.029283081763424e-05
-2.860440145013854e-05,3.065483906539157e-05,-3.159468178637326e-05,3.7267931475071236e-05
-2.9242624805192463e-05,1.3659798241860699e-05,-3.53284522134345e-05,4.512469968176447e-05
-3.2471514714416116e-05,7.577406449854607e-06,-2.8357260816846974e-05,6.133142596809193e-05
-2.888213930418715e-05,2.715382379392395e-06,-1.6305131794069894e-05,8.291707490570843e-05
-1.8699451175052673e-05,-3.3462267765571596e-06,-4.677983270084951e-06,8.858424553181976e-05
-1.1811904187197797e-05,-1.1233907571295276e-05,-1.163944602922129e-06,7.607775478390977e-05
-1.3535150173993316e-05,-1.2847131984017324e-05,-1.745783151818614e-06,6.26842156634666e-05
-1.809130480978638e-05,-1.0091863259731326e-05,-2.4856140043993946e-06,5.610198059002869e-05
-1.9788867575698532e-05,-1.7236982330359751e-06,-2.6469899694347987e-06,5.686712756869383e-05
-1.6600455637671985e-05,5.221069159233593e-07,-3.132023948637652e-06,6.286413554335013e-05
-1.5872912626946345e-05,-5.795474862679839e-06,-3.661010623545735e-06,6.691364978905767e-05
-1.5784145944053307e-05,-1.5735586202936247e-05,-6.156780727906153e-06,6.920372106833383e-05
-1.2663183042604942e-05,-2.2336440451908857e-05,-1.1211694982193876e-05,7.145737617975101e-05
-8.32515252113808e-06,-2.010299613175448e-05,-2.049924478342291e-05,7.341384480241686e-05
-5.184283963899361e-06,-4.77355797556811e-06,-2.9593278668471612e-05,7.146187272155657e-05
-6.269567620620364e-06,1.1017555152648129e-05,-3.1671839678892866e-05,6.702137034153566e-05
-1.2669986972468905e-05,1.6399872038164176e-05,-2.6072500986629166e-05,6.309213495114818e-05
-2.0807101464015432e-05,1.634514228499029e-05,-1.8946260752272792e-05,5.100226917420514e-05
-2.7307974960422143e-05,9.687545571068767e-06,-1.835108923842199e-05,3.0183809940353967e-05
-3.347056917846203e-05,3.496754288789816e-06,-2.449241219437681e-05,1.1071844710386358e-05
-3.70259876945056e-05,1.3254002624307759e-05,-2.8275264412513934e-05,8.253533451352268e-06
-3.7716319639002904e-05,3.374412335688248e-05,-2.1207564714131877e-05,2.6338446332374588e-05
-3.6348719731904566e-05,4.639692269847728e-05,-8.890486242307816e-06,5.1970597269246355e-05
-3.4197822969872504e-05,5.6136836064979434e-05,-1.6259807011920202e-07,6.556802691193298e-05
-3.0217877792892978e-05,6.134303839644417e-05,3.4235220027767355e-06,6.807201134506613e-05
-2.4412243874394335e-05,5.18386805197224e-05,1.9717363102245145e-06,6.8331413785927e-05
-2.4276154363178648e-05,3.410756107768975e-05,-7.000662208156427e-06,6.986731750657782e-05
-3.307259248686023e-05,2.4451250283163972e-05,-2.5316010578535497e-05,6.724533159285784e-05
-3.6552057281369343e-05,1.3633014532388188e-05,-3.2383541110903025e-05,6.388282781699672e-05
-3.2994594221236184e-05,1.1467167496448383e-05,-1.9801744201686233e-05,6.439005665015429e-05
-2.9656845072167926e-05,1.855976188380737e-05,-5.854426035512006e-06,6.569128890987486e-05
-2.518842666177079e-05,2.143211713701021e-05,2.6337881990912138e-06,6.831691280240193e-05
-2.0016299458802678e-05,3.1023722840473056e-05,9.471611519984435e-06,6.92844478180632e-05
-7.478166480723303e-06,5.072330895927735e-05,2.0777775716851465e-05,7.671453931834549e-05
8.231113497458864e-06,6.66636842652224e-05,2.7173560738447122e-05,8.337231702171266e-05
1.405609418725362e-05,7.593089685542509e-05,2.369346475461498e-05,8.036911458475515e-05
1.2445745596778579e-05,8.341047214344144e-05,1.3445546755974647e-05,7.182734407251701e-05
5.9688713918149006e-06,8.656110003357753e-05,1.71599174336734e-06,6.468243373092264e-05
-7.014429684204515e-06,8.163536404026672e-05,-9.629770829633344e-06,6.42554005025886e-05
-2.3476361093344167e-05,5.771142605226487e-05,-1.689004056970589e-05,6.634664896409959e-05
-3.8528229197254404e-05,1.6493124348926358e-05,-2.295962258358486e-05,6.487153586931527e-05
-5.226239227340557e-05,-1.8081380403600633e-05,-2.980952922371216e-05,5.545600288314745e-05
-6.560370093211532e-05,-1.5788038581376895e-05,-2.914134893217124e-05,4.342756074038334e-05
-7.316530536627397e-05,1.5908561181277037e-05,-1.972371683223173e-05,3.672842285595834e-05
-6.927255890332162e-05,4.0250331949209794e-05,-1.144160341937095e-05,3.571593333617784e-05
-5.198013241169974e-05,3.725522037711926e-05,-1.0933495104836766e-05,3.14077697112225e-05
-3.209661736036651e-05,1.911973777168896e-05,-8.024921044125222e-06,2.1255851606838405e-05
-2.6477249775780365e-05,4.513095063884975e-06,-4.4373059608915355e-06,1.559991687827278e-05
-3.443971581873484e-05,-4.555756731861038e-06,-1.0078962986881379e-05,2.619422593852505e-05
-3.85754719900433e-05,-1.4115674275672063e-05,-2.1253334125503898e-05,4.7768146032467484e-05
-3.051304884138517e-05,-1.842769779614173e-05,-2.8272375857341103e-05,6.413880328182131e-05
-1.9734954548766837e-05,-1.5692929082433693e-05,-2.9437929697451182e-05,7.10047097527422e-05
-1.960462032002397e-05,-2.413672518741805e-05,-2.8919612304889597e-05,7.534569886047393e-05
-2.9022767193964683e-05,-4.0093906136462465e-05,-2.820225927280262e-05,7.756979175610468e-05
-3.749661846086383e-05,-3.710523378686048e-05,-1.8388591342954896e-05,7.522318628616631e-05
-3.111751357209869e-05,-1.7423344615963288e-05,-4.152935161982896e-06,6.875355029478669e-05
-8.767178769630846e-06,-3.254825514886761e-06,2.020067540797754e-06,6.24773238087073e-05
5.041966232965933e-06,5.822388175147353e-06,8.38872801978141e-06,6.850666977697983e-05
-4.996989900973858e-06,1.171708936453797e-05,1.0977685633406509e-05,8.255938882939517e-05
-2.8021302568959072e-05,3.011549051734619e-05,-5.371026873035589e-06,9.725824202178046e-05
-4.148733205511235e-05,5.996082836645655e-05,-1.897383845061995e-05,0.00011927300511160865
-3.836502946796827e-05,8.377044287044555e-05,-1.6418129234807566e-05,0.00014590079081244767
-3.671370359370485e-05,0.0001016034948406741,-1.189433260151418e-05,0.000167068064911291
-5.071426130598411e-05,0.00010491275315871462,-1.2882507689937484e-05,0.00017948982713278383
-7.177727820817381e-05,9.671373118180782e-05,-1.5593379430356435e-05,0.00018198168254457414
-8.426044951193035e-05,7.955283217597753e-05,-1.832511588872876e-05,0.00017207508790306747
-7.926439138827845e-05,6.266345008043572e-05,-2.2407812139135785e-05,0.00015804167196620256
-5.932567728450522e-05,5.21260044479277e-05,-2.9013637686148286e-05,0.00014527796884067357
-4.07467559853103e-05,4.340913437772542e-05,-3.804487278102897e-05,0.0001228084583999589
-3.6416146031115204e-05,3.3392941986676306e-05,-4.6236793423304334e-05,7.570470916107297e-05
-4.260299101588316e-05,3.696310886880383e-05,-5.010997483623214e-05,1.1344575796101708e-05
-4.827404336538166e-05,5.096701715956442e-05,-4.7686149628134444e-05,-3.948218727600761e-05
-4.6549255785066634e-05,4.344902481534518e-05,-4.157617877353914e-05,-5.948446778347716e-05
-3.5521385143511e-05,1.0060199201689102e-05,-3.239928264520131e-05,-6.363369902828708e-05
-2.0112336642341688e-05,-6.4614619077474345e-06,-1.86420111276675e-05,-6.872644007671624e-05
-9.382549251313321e-06,1.0206357728748117e-05,-8.777908078627661e-06,-7.6525095209945e-05
-9.252404197468422e-06,1.5396155504276976e-05,-9.365733603772242e-06,-9.628514817450196e-05
-7.933021151984576e-06,2.1004723294026917e-06,3.592705297705834e-07,-0.00012361063272692263
8.144495950546116e-06,-4.257222371961689e-06,3.0514318495988846e-05,-0.00014586393081117421
2.690378823899664e-05,-1.933454086611164e-06,5.83879736950621e-05,-0.00015228401753120124
2.9928272851975635e-05,1.3319389609023347e-06,5.9363421314628795e-05,-0.00013911460700910538
2.0557656171149574e-05,1.1253172260694555e-06,3.286576975369826e-05,-0.00010047425894299522
1.363063529424835e-05,-1.381712309012073e-06,5.217639682086883e-06,-6.0095586377428845e-05
2.1393552742665634e-05,-4.342263935086521e-07,-8.504045581503306e-06,-5.1698025345103815e-05
4.3993815779685974e-05,5.79795323574217e-06,-1.1024089872080367e-05,-4.1346596844960004e-05
5.701703776139766e-05,2.313753793714568e-05,-4.274014827387873e-06,1.5363728380179964e-05
4.856776286032982e-05,5.30139404872898e-05,2.927774858108023e-06,9.47478911257349e-05
3.358482717885636e-05,7.211534830275923e-05,5.3847879826207645e-06,0.00013409287203103304
2.9524666388169862e-05,6.669649155810475e-05,-7.665495900255337e-07,0.00012517377035692334
4.125058330828324e-05,5.469673124025576e-05,-1.0015060979640111e-05,8.366175461560488e-05
5.079317634226754e-05,3.893129905918613e-05,-1.855294976849109e-05,2.9641074434039183e-05
3.983396163675934e-05,2.9133303542039357e-05,-2.0504763597273268e-05,-1.3853593372914474e-05
1.1531453310453799e-05,3.274262780905701e-05,-1.4005670891492628e-05,-2.88244536932325e-05
-2.044750544882845e-05,3.812345312326215e-05,-6.5773288042692e-06,-4.532187631411944e-06
-4.409310349728912e-05,3.3663713111309335e-05,-7.73752253735438e-06,4.3206699047004804e-05
-5.6883833167376e-05,2.2908699975232594e-05,-2.2717802494298667e-05,8.055506623350084e-05
-5.977864930173382e-05,1.1128970982099418e-05,-4.254647501511499e-05,9.104206401389092e-05
-5.422786489361897e-05,-2.6993789106199984e-06,-5.647955185850151e-05,8.796704059932381e-05
-4.112943497602828e-05,-1.7927013686858118e-05,-5.8506779168965295e-05,8.084344153758138e-05
-2.3711660105618648e-05,-2.7944561225012876e-05,-5.035657886764966e-05,7.468252442777157e-05
-1.742419772199355e-05,-2.6741643523564562e-05,-3.944968193536624e-05,7.243752042995766e-05
-3.349552571307868e-05,-2.5995053874794394e-05,-3.81666723114904e-05,7.198401726782322e-05
-5.752052675234154e-05,-2.9798649848089553e-05,-4.17113296862226e-05,7.034630834823474e-05
-7.081668445607647e-05,-2.3083275664248504e-05,-3.749760435312055e-05,7.235321390908211e-05
-7.997707871254534e-05,2.2825493033451494e-06,-1.721187618386466e-05,7.875712617533281e-05
-9.023182792589068e-05,2.8757274776580743e-05,1.7730633771861903e-05,9.271872113458812e-05
-9.004158346215263e-05,5.0321257731411606e-05,4.416053707245737e-05,0.0001007378232316114
-8.522550342604518e-05,6.37757548247464e-05,4.2258841858711094e-05,0.00010131439194083214
-9.99457115540281e-05,5.064588913228363e-05,1.802451879484579e-05,0.00010722276056185365
-0.0001238119148183614,-4.2185564552710275e-07,-1.63352997333277e-05,0.00011872573668370023
-0.00013264951121527702,-6.298462540144101e-05,-4.10273096349556e-05,0.00012528480147011578
-0.0001243156148120761,-8.566604083171114e-05,-4.849886317970231e-05,0.00011920773977180943
-0.0001004046353045851,-4.948776768287644e-05,-3.965458017773926e-05,0.00010890268458751962
-7.831961556803435e-05,-2.7517733087734086e-06,-2.4904733436414972e-05,0.00010121415107278153
-7.276530959643424e-05,7.917525181255769e-06,-2.2227792214835063e-05,0.00010192130139330402
-7.262931467266753e-05,-5.699541816284182e-07,-2.0452007447602227e-05,0.00010176365321967751
-5.7829041907098144e-05,1.0647860108292662e-05,-8.769413398113102e-06,9.802666318137199e-05
-3.15471479552798e-05,4.513544263318181e-05,9.634389243728947e-06,0.00010090650903293863
-1.4121242202236317e-05,7.76060187490657e-05,3.216259938199073e-05,0.00010902667418122292
-1.0869607649510726e-05,9.703563409857452e-05,5.6100147048709914e-05,0.00010374689009040594
-1.1238446859351825e-05,0.00010000023758038878,6.555918662343174e-05,7.773328252369538e-05
-2.0553102331177797e-06,9.02641550055705e-05,4.841407644562423e-05,5.432813486550003e-05
1.3709837730857544e-05,7.738039130344987e-05,1.770152448443696e-05,5.9873087593587115e-05
2.7272501029074192e-05,7.432665006490424e-05,-3.8351066677932977e-07,8.820938819553703e-05
3.6386874853633344e-05,8.372183219762519e-05,-3.0126645924610784e-06,0.00010810542880790308
4.2261166527168825e-05,8.886493014870211e-05,-6.135906915005762e-06,9.135553409578279e-05
4.633871139958501e-05,8.536945097148418e-05,-1.1212775461899582e-05,4.525646727415733e-05
4.991040623281151e-05,8.321252971654758e-05,-5.792087904410437e-06,1.7650747395236976e-05
4.794324922841042e-05,8.63907189341262e-05,7.93451090430608e-06,3.815480158664286e-05
2.7032649086322635e-05,8.236753637902439e-05,1.4631724297942128e-05,7.762731547700241e-05
-1.258766951650614e-05,6.908418436069041e-05,1.1649289263004903e-05,9.55734503804706e-05
-4.367441943031736e-05,5.491217234521173e-05,2.124608727172017e-06,9.270367445424199e-05
-5.144089300301857e-05,3.919882146874443e-05,-5.179951131140115e-06,8.957163663581014e-05
-4.320704101701267e-05,2.2816760974819772e-05,-1.981679361051647e-06,9.569676331011578e-05
-3.403652226552367e-05,1.3181113899918273e-05,7.008926786511438e-06,0.00010282255243510008
-2.7472147849039175e-05,4.9635168579698075e-06,1.0044294867839199e-05,0.00010441500489832833
-1.6870915715117007e-05,-7.3246678766736295e-06,3.1223044061334804e-06,0.00010355799895478413
-8.321344466821756e-06,-1.2863594747614115e-05,-7.4241729635105e-06,0.0001040952411131002
-1.0704782653192524e-05,-9.946034879249055e-06,-1.729306131892372e-05,0.00010713634401326999
-2.0851619410677813e-05,3.5082521208096296e-06,-2.3996475647436455e-05,0.00011232528777327389
-2.8141819711891003e-05,2.025600042543374e-05,-2.3181992219178937e-05,0.00011065151920774952
-3.885492333211005e-05,1.2669042916968465e-05,-1.80498664121842e-05,9.582001075614244e-05
-5.4181164159672335e-05,-1.5687503037042916e-05,-2.0384772142278962e-05,7.479464693460613e-05
-5.816601333208382e-05,-3.0942064768169075e-05,-2.7907590265385807e-05,5.658519148710184e-05
-4.8216763389064e-05,-2.795378168229945e-05,-3.320006362628192e-05,4.767997597809881e-05
-4.296553015592508e-05,-2.2864875063532963e-05,-3.488617221591994e-05,4.7749155783094466e-05
-3.684218609123491e-05,-1.6852898625074886e-05,-2.5562829250702634e-05,5.7006200222531334e-05
-2.019436033151578e-05,5.760775820817798e-06,-8.749883818381932e-06,7.003644714131951e-05
-7.347168775595492e-07,3.093984560109675e-05,-2.4630828647786984e-06,7.7359116403386e-05
1.0718927114794496e-05,3.599773481255397e-05,-9.91275464912178e-06,7.28631202946417e-05
9.183634574583266e-06,2.3389782654703595e-05,-1.1968888429692015e-05,6.117854354670271e-05
-2.5571384298928024e-07,6.318985469988547e-06,-6.377601494023111e-06,4.825647920370102e-05
-9.246475201507565e-06,-6.35216701994068e-06,-6.900453627167735e-06,3.624726377893239e-05
-1.5192262253549416e-05,-1.4330908925330732e-05,-1.5051909940666519e-05,2.9989754693815485e-05
-2.0905283236061223e-05,-1.347686156805139e-05,-2.182943353545852e-05,3.523295163176954e-05
-2.2582322344533168e-05,-3.3210019410034874e-06,-2.125081118720118e-05,4.7610930778319016e-05
-2.4414614017587155e-05,5.489798240887467e-06,-1.4370997632795479e-05,5.3760722948936746e-05
-3.529139212332666e-05,8.703244020580314e-06,-9.812917596718762e-06,5.30315337528009e-05
-4.391746551846154e-05,1.6227260857704096e-05,-1.4987203030614182e-05,4.7123081458266824e-05
-3.603973163990304e-05,2.8234018827788532e-05,-2.1582665794994682e-05,3.8736277929274365e-05
-2.8543952794279903e-05,3.898407521774061e-05,-2.130136090272572e-05,3.540989200701006e-05
-3.4767432225635275e-05,5.356916881282814e-05,-1.9761835574172437e-05,3.76142852474004e-05
-4.5509204937843606e-05,7.100156653905287e-05,-2.3297832740354352e-05,4.1355579014634714e-05
-4.945076580042951e-05,6.399378617061302e-05,-2.345165739825461e-05,4.435404480318539e-05
-4.814210478798486e-05,3.0923889426048845e-05,-1.5169915968726855e-05,4.823565177503042e-05
-4.206574885756709e-05,7.652511158084963e-06,-8.627795068605337e-06,5.39500942977611e-05
-3.331079278723337e-05,1.5781393813085742e-05,-1.154225719801616e-05,5.385378244682215e-05
-2.802954077196773e-05,3.299224772490561e-05,-2.0155177480774e-05,4.1657171095721424e-05
-2.720831980695948e-05,2.751167630776763e-05,-1.9635104763437994e-05,2.5709232431836426e-05
-2.6552024792181328e-05,1.185853125207359e-05,-7.897408977441955e-06,2.168473474739585e-05
-2.409860462648794e-05,1.6953588783508167e-05,-6.722581247231574e-07,3.090799509664066e-05
-2.217520886915736e-05,4.16071925428696e-05,-4.953192274115281e-06,4.369185626273975e-05
-2.4188580937334336e-05,6.229012069525197e-05,-1.0748146451078355e-05,5.06381293234881e-05
-2.679646604519803e-05,6.161227793199942e-05,-8.577669177611824e-06,5.246548607829027e-05
-2.5194687623297796e-05,4.4408025132725015e-05,-7.459811968146823e-07,5.681383117916994e-05
-2.2334868845064193e-05,2.8135047614341602e-05,4.557455213216599e-06,6.24687090748921e-05
-2.3997881726245396e-05,2.4984941774164326e-05,9.798404931871119e-08,6.526787183247507e-05
-3.056562127312645e-05,3.610729254432954e-05,-1.1272526535321958e-05,6.660597864538431e-05
-3.375427331775427e-05,5.335925743565895e-05,-2.0342658899608068e-05,7.015748997218907e-05
-3.317049777251668e-05,6.152679270599037e-05,-1.817126940295566e-05,7.5006035331171e-05
-3.540522084222175e-05,5.339486597222276e-05,-6.236421995708952e-06,7.889027619967237e-05
-3.9976832340471447e-05,3.1543735531158745e-05,2.5558586003171513e-06,7.975315384101123e-05
-3.8907852285774425e-05,-1.0189719432673883e-05,-6.953256615815917e-06,7.846908556530252e-05
-3.1832554668653756e-05,-5.780879291705787e-05,-2.716177550610155e-05,7.9646437370684e-05
-2.5210338208125904e-05,-7.182202534750104e-05,-4.035389065393247e-05,8.415217598667368e-05
-2.1036095859017223e-05,-4.7917990741552785e-05,-3.649083009804599e-05,8.97595746209845e-05
-1.7640697478782386e-05,-2.641948412929196e-05,-1.9071176211582497e-05,9.704518015496433e-05
-1.841610537667293e-05,-2.210759157605935e-05,-6.21812296230928e-06,0.00010069202835438773
-2.069092806777917e-05,-1.846039049269166e-05,-1.216075702359376e-06,9.417656110599637e-05
-1.4309302059700713e-05,-1.00408069556579e-05,6.351795491355006e-06,8.254753629444167e-05
-2.3895672711660154e-06,8.009642442630138e-06,1.1576446922845207e-05,7.46663790778257e-05
3.1160022899712203e-06,2.728507934079971e-05,5.0240928430866916e-06,6.368078175000846e-05
2.268992375320522e-06,3.4366781619610265e-05,-8.366254405700602e-06,3.818214827333577e-05
6.794057298975531e-07,2.8317110263742507e-05,-2.0884092009509914e-05,4.023071596748196e-06
3.838032625935739e-06,1.353717379970476e-05,-2.619313272589352e-05,-2.288840369146783e-05
7.945057404867839e-06,2.2841247755422955e-06,-2.907071939262096e-05,-2.3987970052985474e-05
7.621340046171099e-06,5.997592779749539e-06,-2.9983333661220968e-05,1.9735302885237616e-06
7.052043997646251e-07,2.6900142984231934e-05,-2.9976683435961604e-05,3.7327623431338e-05
-7.162510883063078e-06,4.249100311426446e-05,-2.936825512733776e-05,6.277029024204239e-05
-6.069552455301164e-06,4.208688551443629e-05,-2.6927336875814945e-05,7.732384256087244e-05
-3.088038511123159e-06,3.0457878892775625e-05,-2.814016079355497e-05,8.937313396017998e-05
-9.334583410236519e-06,2.216940265498124e-05,-3.291022585472092e-05,9.922130266204476e-05
-2.232862971141003e-05,2.1388557797763497e-05,-3.566429950296879e-05,0.00010456110612722114
-3.846775507554412e-05,2.985386709042359e-05,-3.161807399010286e-05,0.00010651141928974539
-5.606139529845677e-05,4.409031680552289e-05,-2.4013415895751677e-05,0.0001028404149110429
-6.878948624944314e-05,5.668772791977972e-05,-1.9850485841743648e-05,9.305660205427557e-05
-7.307286432478577e-05,6.649048737017438e-05,-1.9780040020123124e-05,8.560291462345049e-05
-6.770999607397243e-05,7.508825365221128e-05,-1.6978288840618916e-05,8.259139576693997e-05
-5.440311360871419e-05,8.27099138405174e-05,-1.1592263035709038e-05,7.748309144517407e-05
-4.16045768361073e-05,7.881868805270642e-05,-6.897604180267081e-06,6.257370841922238e-05
-3.89234846807085e-05,6.194403977133334e-05,-1.628890913707437e-06,3.538469900377095e-05
-4.220378468744457e-05,5.038669041823596e-05,1.2718488505925052e-05,9.292900358559564e-06
-4.334513869252987e-05,6.8550871219486e-05,3.2917399948928505e-05,1.5689774954807945e-06
-4.30420259363018e-05,9.6803494670894e-05,4.396800432004966e-05,9.588855391484685e-06
-4.7039397031767294e-05,0.00010895245213760063,4.655582961277105e-05,1.5289606380974874e-05
-5.070054248790257e-05,0.00010172057955060154,4.644212094717659e-05,5.910093932470772e-06
-5.470594987855293e-05,6.048705836292356e-05,5.283184873405844e-05,-1.78710888576461e-05
-5.1541486755013466e-05,-7.358259608736262e-06,6.309410673566163e-05,-2.6553425414022058e-05
-2.873137782444246e-05,-5.3144431149121374e-05,5.684153802576475e-05,1.0431601367599797e-05
-4.1499724829918705e-06,-5.401045928010717e-05,2.8055463189957663e-05,6.28487832727842e-05
3.260649009462213e-06,-2.2462400011136197e-05,-3.5065688734903233e-06,9.671549196355045e-05
-3.181201293500635e-07,7.747806193947326e-06,-2.0791914721485227e-05,0.00011182677553733811
2.0107361820009828e-07,1.2249977771716658e-05,-2.3365280867437832e-05,0.00012224448437336832
5.863734259037301e-06,1.1014663868991192e-05,-9.758157830219716e-06,0.00013217556988820434
1.3879131984140258e-05,2.601058076834306e-05,9.378830327477772e-06,0.00012893752136733383
1.693269041425083e-05,4.4830805563833565e-05,1.9616571080405265e-05,0.000104474340332672
1.1734319741663057e-05,6.185929669300094e-05,1.5061560588947032e-05,6.87994688632898e-05
3.775576033149264e-06,6.96872957632877e-05,5.326881478140422e-07,3.6593912227544934e-05
-1.1705806457484869e-07,5.973831139272079e-05,-1.7092344933189452e-05,1.4502849808195606e-05
2.807694045259268e-06,4.362999243312515e-05,-2.922046223829966e-05,-4.1561679609003477e-07
4.767779955727747e-06,3.8310121453832835e-05,-3.2495932828169316e-05,-2.034638964687474e-05
3.3100454857049044e-06,4.226209784974344e-05,-3.1231011234922335e-05,-4.731089939014055e-05
5.6666181080800015e-06,4.335232006269507e-05,-2.5966297471313737e-05,-6.899593427078798e-05
1.8500151782063767e-05,4.3255822674836963e-05,-2.0133305952185765e-05,-7.333254325203598e-05
3.662979361251928e-05,4.466048631002195e-05,-2.0876868802588433e-05,-5.9896628954447806e-05
4.49292165285442e-05,4.589395393850282e-05,-2.9559514587162994e-05,-3.24035354424268e-05
3.105411815340631e-05,4.62001480627805e-05,-3.7273639463819563e-05,2.6755134285849635e-07
4.1932020167223527e-07,3.770214971154928e-05,-3.962035771110095e-05,2.6743407943286e-05
-2.841774039552547e-05,2.30273071792908e-05,-3.7522753700613976e-05,4.839982284465805e-05
-5.0851263949880376e-05,1.5682384400861338e-05,-3.454203033470549e-05,7.738996646367013e-05
-7.772113167447969e-05,1.0087349437526427e-05,-3.207358895451762e-05,0.0001053362648235634
-0.00011358367919456214,9.048440915648825e-06,-2.717507231864147e-05,0.0001176300720544532
-0.0001485931279603392,4.7075568545551505e-06,-1.8162942069466226e-05,0.0001242492871824652
-0.0001660577254369855,-4.6329496399266645e-06,-1.1971026651735883e-05,0.0001441169297322631
-0.0001547130523249507,-4.066004919422994e-07,-1.1009024092345499e-05,0.00016653083730489016
-0.00012211893044877797,1.1556273420865182e-05,-1.4880644812365063e-05,0.00017391613801009953
-8.52640878292732e-05,2.0404226233949885e-05,-2.027973641816061e-05,0.00016080586647149175
-5.5628617701586336e-05,2.337198020541109e-05,-2.178312570322305e-05,0.00014377567276824266
-3.224754618713632e-05,2.0274716007406823e-05,-2.0819727069465443e-05,0.00014375073078554124
-5.125882125867065e-06,1.4317787645268254e-05,-1.8644746887730435e-05,0.00014960886619519442
8.685390639584512e-06,3.206059545846074e-06,-1.5537376384600066e-05,0.0001438517210772261
4.3738618842326105e-06,-8.185446858988144e-06,-1.3147114259481896e-05,0.00012201705976622179
-2.7005726224160753e-06,-1.3216333172749728e-05,-9.720825801196042e-06,9.052079258253798e-05
-1.0609706805553287e-05,-1.4197962627804372e-05,-8.661420906719286e-06,5.493541539181024e-05
-2.6225690817227587e-05,-9.793542631086893e-06,-1.569068081153091e-05,2.3169141059042886e-05
-5.0306309276493266e-05,5.9206918194831815e-06,-2.4353008484467864e-05,-6.425384526664857e-06
-6.159316399134696e-05,2.7863381546922028e-05,-2.6839401471079327e-05,-3.444460890023038e-05
-4.1501833038637415e-05,5.1817085477523506e-05,-2.4543676772736944e-05,-3.695823761518113e-05
1.6719606037440826e-06,7.007536623859778e-05,-1.898959635582287e-05,1.1908918168046512e-05
4.1557559598004445e-05,7.993928738869727e-05,-1.2272710137040121e-06,8.822079689707607e-05
6.398780533345416e-05,8.390232687816024e-05,2.6755353246699087e-05,0.00013891073467675596
7.013644062681124e-05,7.308241765713319e-05,4.229340993333608e-05,0.00014737245510332286
6.595625018235296e-05,4.739914948004298e-05,3.369557089172304e-05,0.00013568381837103516
5.7696659496286884e-05,3.2436990295536816e-05,1.7757703972165473e-05,0.00012432460789568722
3.921420284314081e-05,3.404693052289076e-05,7.999506124178879e-06,0.00011589415225898847
2.927123887275229e-06,2.987067637150176e-05,1.475103886150464e-06,0.00010665501758921891
-3.914405533578247e-05,1.1833644748548977e-05,-4.437856205186108e-06,9.163420327240601e-05
-8.240331226261333e-05,-1.4407108210434671e-05,-1.2526003956736531e-05,7.565693522337824e-05
-0.00011401632946217433,-3.696877320180647e-05,-2.9547969461418688e-05,6.802648567827418e-05
-0.0001260904682567343,-5.716911982744932e-05,-5.2615498134400696e-05,6.451272929552943e-05
-0.00013299034617375582,-7.55913060856983e-05,-7.282891601789743e-05,5.918397437199019e-05
-0.00012555657303892076,-8.128942135954276e-05,-8.115448872558773e-05,4.1789739043451846e-05
-8.783331577433273e-05,-7.245525193866342e-05,-7.573964830953628e-05,-1.573231565998867e-05
-5.148825221112929e-05,-5.998063352308236e-05,-6.0200625739526004e-05,-0.00010719935380620882
-4.98754161526449e-05,-4.6430643124040216e-05,-3.462860331637785e-05,-0.0001609091559657827
-6.65897605358623e-05,-2.7978505386272445e-05,-3.250111603847472e-06,-0.00014122958236839622
-7.634633948327973e-05,3.900386218447238e-06,3.2752104743849486e-05,-8.746708772378042e-05
-7.628653838764876e-05,4.7791476390557364e-05,5.943905489402823e-05,-5.143040107213892e-05
-7.792503311065957e-05,7.39243405405432e-05,5.730800694436766e-05,-5.434050763142295e-05
-7.746051414869726e-05,5.668097219313495e-05,2.9037602871540003e-05,-5.416678686742671e-05
-6.619951454922557e-05,1.874398731160909e-05,-2.996840748892282e-06,-1.8973913029185496e-05
-5.195147969061509e-05,-4.155628630542196e-06,-1.5205658201011829e-05,2.4532095267204568e-05
-4.577338040689938e-05,-8.371611329494044e-06,-1.5698849438194884e-06,5.2372972277225927e-05
-4.720735887531191e-05,-4.346340119809611e-06,2.0779023543582298e-05,7.704313611611724e-05
-4.643680586013943e-05,8.157016054610722e-06,2.9161497877794318e-05,0.00010692547948565334
-3.8045844121370465e-05,2.8296482923906296e-05,2.261799636471551e-05,0.00013702867727261037
-2.2356034605763853e-05,5.200014857109636e-05,1.3442751878756098e-05,0.00016335294640157372
-6.981446176723693e-07,7.329981599468738e-05,8.767255167185795e-06,0.0001811497495509684
2.4481916625518352e-05,8.834667823975906e-05,1.498435995017644e-05,0.0001874946610769257
4.789392551174387e-05,0.00011106122110504657,3.986255615018308e-05,0.00017615857359487563
6.55703479424119e-05,0.00014752941206097603,6.755821959814057e-05,0.00014022290997672826
7.078500493662432e-05,0.00017392414156347513,6.569124525412917e-05,9.822626452660188e-05
5.2657829655800015e-05,0.0001681633439147845,3.138713145744987e-05,8.632396202301607e-05
1.9042861822526902e-05,0.00014166824985295534,-9.225179383065552e-06,0.00011163621093146503
-1.3151114217180293e-05,0.00011586083564907312,-3.070016828132793e-05,0.00013871084956917912
-4.3603071389952675e-05,9.83167119557038e-05,-3.0372193577932194e-05,0.00012905428593512625
-6.83082762407139e-05,7.686114986427128e-05,-3.350456972839311e-05,8.823553071124479e-05
-7.796611316734925e-05,4.0679591620573774e-05,-4.4679047277895734e-05,3.034420296899043e-05
-6.6263550252188e-05,1.3332666640053503e-05,-4.641771738533862e-05,-2.2626729332841933e-05
-3.103440394625068e-05,-1.4239186612030608e-06,-4.1884719394147396e-05,-6.512659456348047e-05
-7.0964247242955025e-06,-2.123548802046571e-05,-4.367955989437178e-05,-0.0001090654986910522
-1.4667302821180783e-05,-3.813316652667709e-05,-5.1216455176472664e-05,-0.00013180612586438656
-2.4002176360227168e-05,-3.47261993738357e-05,-5.5459284340031445e-05,-0.0001203885258291848
-1.5507936041103676e-05,-7.0188220888667274e-06,-5.200040322961286e-05,-9.909844811772928e-05
-1.1274160897301044e-05,2.254936407553032e-05,-3.988617390859872e-05,-9.136911103269085e-05
-2.03191284526838e-05,4.465763413463719e-05,-2.5359460778417997e-05,-8.688466186868027e-05
-1.3597975339507684e-05,4.638669634005055e-05,-1.823324964789208e-05,-5.977928958600387e-05
1.0097895938088186e-05,1.2695636542048305e-05,-2.1335094061214477e-05,-2.1517331333598122e-05
2.7206522645428777e-05,-3.640336581156589e-05,-2.7356893042451702e-05,-6.455063612520462e-07
2.8418995498213917e-05,-5.459365274873562e-05,-2.710651642701123e-05,8.058425009949133e-06
2.236665750388056e-05,-3.105448558926582e-05,-2.1243606170173734e-05,2.0256047719158232e-05
2.374317409703508e-05,6.245712938834913e-06,-1.9367564163985662e-05,3.8951544411247596e-05
2.7857116947416216e-05,2.82200999208726e-05,-2.7858095563715324e-05,5.3698204283136874e-05
1.6955358660197817e-05,2.6903555408352986e-05,-3.8417649193434045e-05,6.248942372621968e-05
-7.896500392234884e-06,9.680084986030124e-06,-4.0305108996108174e-05,6.96007045917213e-05
-2.6557872843113728e-05,-1.563803198223468e-05,-3.412271325942129e-05,8.130904461722821e-05
-3.063672556891106e-05,-3.039682451344561e-05,-2.4976958229672164e-05,9.67894375207834e-05
-2.936173405032605e-05,-1.957853055500891e-05,-1.4591343642678112e-05,0.00011169158096890897
-3.478564030956477e-05,1.1896563592017628e-05,-2.4592302452219883e-06,0.00012710870942100883
-4.370934402686544e-05,3.96225368604064e-05,7.494831152143888e-06,0.00014061227557249367
-4.584007547236979e-05,4.957742930855602e-05,8.294422514154576e-06,0.00014939495304133743
-3.3800512028392404e-05,4.2237174056936055e-05,1.4462244735113927e-06,0.00015594164142385125
-1.100403824239038e-05,3.0160108508425765e-05,-1.5012498124633566e-06,0.00016621638496872038
3.20951767207589e-06,3.4617860364960507e-05,-3.4001257063209778e-06,0.00017017420032061636
-1.0681062576622935e-06,4.856367741012946e-05,-1.1731031918316148e-05,0.0001658777182456106
-1.9466022422420792e-05,3.36355842591729e-05,-1.9377052012714557e-05,0.00015797835658304393
-3.401620779186487e-05,-1.620564034965355e-05,-1.597965274413582e-05,0.0001526208798168227
-3.1814266549190506e-05,-5.784943277831189e-05,-3.8584335015912075e-06,0.00015278757200576365
-1.4780654055357445e-05,-6.545976066263393e-05,3.674100071293651e-06,0.00015390505723189563
6.1820064729545265e-06,-4.433333015185781e-05,5.188960585655877e-06,0.0001531941961729899
3.7460276871570386e-06,-1.1561844985408243e-05,2.688135509743006e-06,0.00013582261453848332
-1.997964682232123e-05,3.05848834614153e-06,-2.2819215246272506e-06,9.467188647249714e-05
-3.488448783173226e-05,4.31164107794757e-06,-7.792968972353265e-06,5.820316437166184e-05
-3.379978807060979e-05,1.4790483874094207e-05,-1.077687102224445e-05,6.10346432949882e-05
-2.62130779447034e-05,4.114589319215156e-05,-1.1926730621780735e-05,8.732837886782363e-05
-3.115069921477698e-05,6.0085589211666957e-05,-1.4184894098434597e-05,0.0001012712818919681
-5.013913323637098e-05,5.887980296392925e-05,-1.9267978132120334e-05,9.282445535063744e-05
-6.37474877294153e-05,5.824109030072577e-05,-2.679366480151657e-05,7.322279270738363e-05
-5.323007280821912e-05,6.227437552297488e-05,-3.291199391242117e-05,6.008603668306023e-05
-3.45120279234834e-05,4.044208617415279e-05,-3.548666063579731e-05,5.920233525102958e-05
-3.2930758607108146e-05,-9.661844160291366e-06,-3.6628473026212305e-05,6.240644870558754e-05
-4.446345701580867e-05,-4.7853343858150765e-05,-3.979597022407688e-05,5.7123819715343416e-05
-5.479234459926374e-05,-5.551427966565825e-05,-4.072257434017956e-05,4.906050889985636e-05
-6.15165481576696e-05,-5.143307862454094e-05,-3.972797276219353e-05,4.937197081744671e-05
-6.668017886113375e-05,-4.793953485204838e-05,-3.9837923395680264e-05,5.226534995017573e-05
-6.92761896061711e-05,-3.5973789636045694e-05,-3.599980482249521e-05,5.122786751599051e-05
-7.280362478923053e-05,-1.563011210237164e-05,-2.4231298084487207e-05,5.420011075329967e-05
-7.770291267661378e-05,4.930991963192355e-06,-7.953707608976401e-06,6.543243216583505e-05
-8.525764860678464e-05,2.570592550910078e-05,2.176290945499204e-05,8.145072206389159e-05
-8.209421503124759e-05,5.89674455113709e-05,6.567077798536047e-05,9.60689940256998e-05
-6.149404362076893e-05,8.599071588832885e-05,9.084717748919502e-05,8.626954513601959e-05
-3.553069836925715e-05,8.317861647810787e-05,6.92718313075602e-05,2.734875124588143e-05
-2.223472620244138e-05,7.136091153370216e-05,2.932125426013954e-05,-3.569464024621993e-05
-2.055315053439699e-05,7.55576475057751e-05,1.1237742000957951e-05,-4.363707921584137e-05
-1.712687844701577e-05,8.546555909560993e-05,1.0899380868067965e-05,-9.303508704761043e-06
-1.0882494279940147e-05,9.916869748849422e-05,9.947906619345304e-06,2.9400182029348798e-05
-3.944670424971264e-06,0.00011784661182900891,3.05237335851416e-06,5.0954979087691754e-05
-1.7654649582254933e-06,0.0001272814261028543,-7.296534931811038e-06,5.0900827773148194e-05
-7.085816378094023e-06,0.00012075820268364623,-1.6077525287983008e-05,3.592067878344096e-05
-1.44683735925355e-05,0.00010344294423703104,-1.1601305232034065e-05,2.2048669052310288e-05
-1.239124048879603e-05,9.71223707892932e-05,5.48417256140965e-06,1.79571179614868e-05
-2.274248345202068e-06,0.00011362632358213887,1.769160371623002e-05,3.3182528568431735e-05
4.761347554449458e-06,0.00013904593652114272,1.4878372894600034e-05,6.271126767387614e-05
3.2147488582268124e-06,0.00015448220074176788,5.774381861556321e-06,9.0563073172234e-05
-3.669219950097613e-06,0.00015308793808799237,-3.3692876968416385e-06,0.00010713870142353699
-9.281354323320556e-06,0.0001463477819925174,-9.856403266894631e-06,0.00011333530710544437
-1.1775726306950673e-05,0.00013579081860370934,-1.3084744750813115e-05,0.00011221622844459489
-1.2543131560960319e-05,0.00011328661639709026,-1.4614438441640232e-05,0.00010630844190018252
-1.5101645658432972e-05,7.926603575469926e-05,-1.4257692782848608e-05,8.867451833793893e-05
-1.7833690435509197e-05,3.9892060158308595e-05,-1.3008227142563555e-05,5.1345592510188e-05
-2.0914512788294815e-05,-5.616324415314011e-06,-9.337505616713315e-06,2.53031357715372e-05
-2.9228893254185095e-05,-6.19670026935637e-05,-4.073230229550973e-06,5.581751975114457e-05
-4.4092659663874656e-05,-0.00011420767259551212,-4.1253356357628945e-06,0.00012953947589267045
-5.8373007050249726e-05,-0.00011953922512475401,-7.931962500151712e-06,0.00019019684987142682
-6.97286959621124e-05,-7.223292777780443e-05,-9.326847248303238e-06,0.00021664798259735107
-8.999217970995232e-05,-3.671853482956067e-05,-1.0661216947482899e-05,0.00022635918867308646
-0.00012175417941762134,-4.292800440452993e-05,-1.9084303858107887e-05,0.0002384334075031802
-0.00014596764231100678,-6.0790196585003287e-05,-3.882408782374114e-05,0.00026353992871008813
-0.0001516747724963352,-6.202058284543455e-05,-5.478471939568408e-05,0.00030498579144477844
-0.0001373501872876659,-5.7560486311558634e-05,-5.092973151477054e-05,0.00034247676376253366
-0.00011030738824047148,-5.9858928580069914e-05,-3.4407359635224566e-05,0.0003531227121129632
-7.523751264670864e-05,-5.094401058158837e-05,-1.8777698642225005e-05,0.00033574586268514395
-3.090306563535705e-05,-2.579487227194477e-05,-4.743824320030399e-06,0.00030524295289069414
9.308643711847253e-06,5.09837661866186e-07,7.283332706720103e-06,0.00023332585988100618
4.040275598526932e-05,1.6958862033789046e-05,2.89158688246971e-05,9.63100537774153e-05
6.597214814973995e-05,3.9967500924831256e-05,6.66223859298043e-05,-4.7498164349235594e-05
8.268853707704693e-05,7.917825132608414e-05,9.473248064750805e-05,-0.0001436749444110319
9.725294512463734e-05,0.00012056103878421709,8.900079410523176e-05,-0.00019897478341590613
0.0001226898457389325,0.00014037489017937332,5.429080192698166e-05,-0.00024634908186271787
0.0001450366689823568,0.00011303097562631592,1.2133386917412281e-05,-0.0003026401100214571
0.00014685277710668743,4.822266782866791e-05,-1.3650312212121207e-05,-0.0003544583742041141
0.0001255398674402386,-1.1901589459739625e-05,-1.803350642148871e-05,-0.0003779646649491042
9.569274698151276e-05,-2.9408445698209107e-05,-2.1529474906856194e-05,-0.00036657159216701984
7.698857370996848e-05,-2.1000409105909057e-05,-4.037317557958886e-05,-0.00033724430250003934
7.191304757725447e-05,-1.7476670109317638e-05,-6.803732685511932e-05,-0.00029299536254256964
6.515140557894483e-05,-1.9360370060894638e-05,-8.188078936655074e-05,-0.0002209550148108974
4.771239764522761e-05,-1.7225749616045505e-05,-7.517047197325155e-05,-0.0001338347647106275
2.2268617613008246e-05,-1.1957911738136318e-05,-6.30505383014679e-05,-6.852314982097596e-05
-5.875034275959479e-06,-5.250027697911719e-06,-5.521207276615314e-05,-4.13397719967179e-05
-2.4394315914832987e-05,-1.3529205489248852e-06,-4.676240496337414e-05,-4.024642475997098e-05
-2.52446552622132e-05,-3.6172300497128163e-06,-3.665388067020103e-05,-3.792430288740434e-05
-1.6024054275476374e-05,-3.7042075291537913e-06,-3.264995393692516e-05,-1.0082707376568578e-05
-6.32149021839723e-06,-3.993005520896986e-06,-3.4454445994924754e-05,3.4742475691018626e-05
-9.020720426633488e-06,-8.506746780767571e-06,-3.078215377172455e-05,7.771612581564113e-05
-2.6558423996903002e-05,1.1386326548290526e-07,-2.1608364477287978e-05,0.00011638644355116412
-4.735885886475444e-05,2.2018339222995564e-05,-1.2965171663381625e-05,0.00014743354404345155
-6.457567360484973e-05,2.889829920604825e-05,-1.2226419130456634e-05,0.00016038669855333865
-7.794709381414577e-05,1.5293548131012358e-05,-1.3995609151606914e-05,0.00016398378647863865
-0.00010031636338680983,2.4770845357124927e-06,-1.2982633961655665e-05,0.00015880900900810957
-0.00012159710604464635,5.913030690862797e-06,-1.3011726878175978e-05,0.0001497806515544653
-0.00011709100363077596,2.2301175704342313e-05,-1.0488527550478466e-05,0.000149117098771967
-8.690675895195454e-05,4.630192051990889e-05,-6.519356247736141e-06,0.00014340574853122234
-5.573195085162297e-05,6.399094127118587e-05,-3.542988906701794e-06,0.0001275785907637328
-3.22632840834558e-05,8.1717073044274e-05,-2.4825433229125338e-06,0.0001041210416588001
-1.990267264773138e-05,0.00010992127499775961,5.665421554112982e-07,7.756676495773718e-05
-2.3375054297503084e-05,0.00011021339742001146,2.4274436327687e-06,6.257627683226019e-05
-3.226017361157574e-05,4.589118543663062e-05,-1.806227714951092e-06,7.834106509108096e-05
-2.8085551093681715e-05,-4.627055750461295e-05,-8.780243661021814e-06,0.00012922121095471084
-1.4808267223997973e-05,-0.00010465494415257126,-1.253090795216849e-05,0.00018800479301717132
-1.5933454051264562e-05,-0.00012133103155065328,-1.2803461686416995e-05,0.0002323671360500157
-4.3289368477417156e-05,-0.00011817373160738498,-1.4874037333356682e-05,0.000262459710938856
-9.400779526913539e-05,-9.855782991508022e-05,-2.0590801796060987e-05,0.0002807261480484158
-0.00014248555817175657,-6.38661949778907e-05,-2.4053206288954243e-05,0.0002787297125905752
-0.00015734850603621453,-3.3834196074167266e-05,-2.1519681467907503e-05,0.0002586297632660717
-0.00014465868298429996,-1.686039104242809e-05,-1.6883765056263655e-05,0.00024440468405373394
-0.0001405058428645134,-2.906427198468009e-06,-1.6190400856430642e-05,0.0002476247609592974
-0.00015163776697590947,1.2997405974601861e-05,-2.1060412109363824e-05,0.00025005333009175956
-0.0001503697276348248,3.091779217356816e-05,-2.519797817512881e-05,0.0002348668349441141
-0.0001260850694961846,4.2731542635010555e-05,-2.7019068511435762e-05,0.00019335199613124132
-0.00010154938354389742,4.8735502787167206e-05,-3.276073402957991e-05,0.00013039277109783143
-9.127770317718387e-05,6.996040610829368e-05,-4.198379974695854e-05,6.657398625975475e-05
-9.631473949411884e-05,8.02952199592255e-05,-4.9431466322857887e-05,1.1486007679195609e-05
-0.00010308333730790764,3.8663063605781645e-05,-5.051655898569152e-05,-3.109020326519385e-05
-0.00010779576405184343,-2.419932934571989e-05,-3.909632141585462e-05,-5.565708124777302e-05
-0.00010773354006232694,-5.73408069612924e-05,-2.340714490856044e-05,-6.707244028802961e-05
-9.897274867398664e-05,-4.77836474601645e-05,-6.891148586873896e-06,-8.068363968050107e-05
-6.859145651105791e-05,-2.432320252410136e-05,1.0646159353200346e-05,-8.49230564199388e-05
-1.1100529263785575e-05,-1.679704655543901e-05,2.3458727810066193e-05,-6.32447554380633e-05
4.564692062558606e-05,-1.3580402082880028e-05,3.6947265471098945e-05,-4.633112621377222e-05
7.320319127757102e-05,1.0881340131163597e-05,5.481228799908422e-05,-7.19612799002789e-05
7.006939267739654e-05,4.924984386889264e-05,6.296624633250758e-05,-0.00011819796054624021
6.642130028922111e-05,7.292617374332622e-05,4.800621900358237e-05,-0.00012588969548232853
7.215802907012403e-05,7.873478898545727e-05,2.1514453692361712e-05,-7.983874093042687e-05
7.4284354923293e-05,9.251032315660268e-05,4.781167717737844e-06,-2.8966687750653364e-05
6.0356087487889454e-05,0.00011806593101937324,1.0200595568221615e-07,-1.6257659808616154e-05
4.311755401431583e-05,0.00013028942339587957,-3.8853359001223e-06,-3.2627791370032355e-05
3.9602487959200516e-05,0.00013228447642177343,-9.520203093416058e-06,-3.969205863540992e-05
4.6724606363568455e-05,0.0001434977020835504,-1.3628836313728243e-05,-2.3575888917548582e-05
6.149466207716614e-05,0.00016569737636018544,-1.3897491044190247e-05,-1.3455289263220038e-05
8.844249532558024e-05,0.00018132879631593823,-1.0624285096128006e-05,-3.5951587051386014e-05
0.00011168606579303741,0.0001662298309383914,-8.448487278656103e-06,-5.2022347517777234e-05
0.00010346173075959086,0.00011505462316563353,-1.090833484340692e-05,-8.782682925811969e-06
7.150688179535791e-05,6.538251182064414e-05,-1.5111978427739814e-05,7.729807839496061e-05
3.943621413782239e-05,4.551900565274991e-05,-2.0947512894053943e-05,0.00014509964967146516
1.1093039574916475e-05,2.720124575716909e-05,-3.116796142421663e-05,0.00016458179743494838
-1.8794356947182678e-05,-2.1091433154651895e-05,-3.9877351809991524e-05,0.00015777938824612647
-4.4843578507425264e-05,-6.741609104210511e-05,-3.7892794352956116e-05,0.00014925590949133039
-5.7669425586936995e-05,-6.366390152834356e-05,-3.1095649319468066e-05,0.00014522564015351236
-6.122660852270201e-05,-3.3015545341186225e-05,-2.9766388252028264e-05,0.0001398529129801318
-6.592005956918001e-05,-1.0398562153568491e-05,-2.4803470296319574e-05,0.00011732445273082703
-7.024690421530977e-05,4.786442332260776e-06,-1.0848454621736892e-05,8.40624634292908e-05
-7.375861605396494e-05,1.142259225161979e-05,5.7380530051887035e-06,7.17141228960827e-05
-7.257417018990964e-05,2.23513907258166e-05,2.1611400370602496e-05,7.474674202967435e-05
-6.213559390744194e-05,4.437714960658923e-05,2.616927304188721e-05,6.494684203062207e-05
-4.694455856224522e-05,5.8545731008052826e-05,1.6490583220729604e-05,1.1201243978575803e-05
-3.3252217690460384e-05,4.0213180909631774e-05,3.3951423574762885e-06,-7.439759065164253e-05
-3.420199209358543e-05,-1.0860667316592298e-05,-6.6157308538095094e-06,-0.00010750854562502354
-5.299479016684927e-05,-5.5142045312095433e-05,-1.2751602298521902e-05,-5.1097769755870104e-05
-7.456022285623476e-05,-6.488271901616827e-05,-1.58586790348636e-05,3.2123163691721857e-05
-7.818541780579835e-05,-2.789672180369962e-05,-1.4591478247893974e-05,8.113007061183453e-05
-5.076671004644595e-05,2.4704000679776073e-05,-9.988177225750405e-06,9.465500625083223e-05
-9.143705028691329e-06,5.017106013838202e-05,-3.1760653200763045e-06,0.00010725144966272637
9.442135706194676e-06,4.700144563685171e-05,3.834232302324381e-06,0.00013530734577216208
-5.417753072833875e-06,3.6816534702666104e-05,1.2047025848005433e-05,0.00016649201279506087
-3.7745929148513824e-05,3.52155402651988e-05,2.0312892957008444e-05,0.000193746222066693
-6.572448910446838e-05,3.6326706322142854e-05,1.814496317820158e-05,0.0002187130885431543
-7.834573625586927e-05,3.092038969043642e-05,4.1322887227579486e-06,0.0002381764497840777
-8.70309304445982e-05,2.2437156076193787e-05,-8.906597940949723e-06,0.0002519451663829386
-0.0001118331347242929,1.355264066660311e-05,-1.4684786037832964e-05,0.00025136483600363135
-0.00015138566959649324,2.390671625107643e-06,-1.8284483303432353e-05,0.00021739902149420232
-0.00017528506577946246,-8.78429455042351e-06,-1.888579390652012e-05,0.00017938548990059644
-0.0001590196625329554,-2.0173964003333822e-05,-9.955106179404538e-06,0.0001845471269916743
-0.00011460848327260464,-1.9376819182070903e-05,1.1000155382134835e-06,0.0002108813641825691
-6.0985476011410356e-05,-1.540274934086483e-05,2.409936712410854e-07,0.00018934669787995517
-4.648320100386627e-06,-1.9503262592479587e-05,-8.324231203005183e-06,0.00010323384776711464
4.7345791244879365e-05,-1.3515824321075343e-05,-9.068451618077233e-06,2.5575296604074538e-05
8.86571069713682e-05,2.617073550936766e-05,1.5146652003750205e-05,2.559172935434617e-05
8.963979780673981e-05,7.448873657267541e-05,4.201779665891081e-05,5.991991201881319e-05
4.546353011392057e-05,9.119300375459716e-05,3.29440226778388e-05,4.2451378249097615e-05
-5.1019642341998406e-06,7.23351986380294e-05,6.284813593993022e-07,-2.8477634259616025e-05
-1.9748373233596794e-05,2.9293105399119668e-05,-3.052567262784578e-05,-8.667465590406209e-05
8.31899160402827e-06,-8.444969353149645e-06,-4.869160693488084e-05,-8.111156057566404e-05
4.406544758239761e-05,-2.1321069652913138e-05,-4.9473434046376497e-05,-2.718426549108699e-05
6.797567039029673e-05,4.848148819291964e-06,-3.4464752388885245e-05,1.2826803867937997e-05
7.42985648685135e-05,4.572049874695949e-05,-7.988491233845707e-06,1.0853348612727132e-05
4.903412263956852e-05,6.913235120009631e-05,1.4144000488158781e-05,-1.4652874597231857e-05
-2.4317305360455066e-06,7.550350710516796e-05,1.5968513253028505e-05,-4.0818453271640465e-05
-4.451847053132951e-05,7.217594975372776e-05,-1.6307394616887905e-06,-6.790585030103102e-05
-5.296673407428898e-05,7.434172584908083e-05,-1.770289964042604e-05,-0.0001080837391782552
-3.581230703275651e-05,7.737871055724099e-05,-2.0723909983644262e-05,-0.00016931908612605184
-4.420570803631563e-06,6.250906153582036e-05,-2.1600364561891183e-05,-0.00022506270033773035
4.234383231960237e-05,3.387064498383552e-05,-2.616733945615124e-05,-0.00021573125559370965
8.395171607844532e-05,2.058290374407079e-05,-2.9189546694396995e-05,-0.0001246276224264875
8.638912549940869e-05,3.1623407267034054e-05,-2.943617982964497e-05,-1.1903588301720447e-06
4.949333015247248e-05,5.5537053412990645e-05,-2.982780642923899e-05,9.20947059057653e-05
-1.3379863048612606e-06,7.54176071495749e-05,-2.873145422199741e-05,0.00013251871860120445
-4.0486014768248424e-05,8.491070184390992e-05,-2.328509435756132e-05,0.00013844930799677968
-5.923070784774609e-05,8.55854814290069e-05,-1.461131887481315e-05,0.00014314218424260616
-8.089326729532331e-05,7.071351865306497e-05,-8.556889952160418e-06,0.00016423751367256045
-0.00011499440734041855,4.088180503458716e-05,-8.720424375496805e-06,0.0001923878735397011
-0.00013414188288152218,1.2892311133327894e-05,-1.2676438927883282e-05,0.00020184660388622433
-0.0001206862143590115,-3.7730246731371153e-06,-2.106093779730145e-05,0.0001839749893406406
-8.824694668874145e-05,-1.5799172615516e-05,-3.1825551559450105e-05,0.00015869563503656536
-6.095421122154221e-05,-2.7662043066811748e-05,-4.324324254412204e-05,0.00012531103857327253
-4.539091241895221e-05,-4.864359652856365e-05,-5.406493801274337e-05,6.827028119005263e-05
-3.057943104067817e-05,-7.05154161551036e-05,-5.603897443506867e-05,6.619237410632195e-06
-7.857277523726225e-06,-6.43886742182076e-05,-4.6729936002520844e-05,-2.522915201552678e-05
3.484112085061497e-06,-3.48783032677602e-05,-3.740836473298259e-05,-2.5539064154145308e-05
-1.736143894959241e-05,-7.4188087637594435e-06,-3.166983515257016e-05,-1.2970928764843848e-05
-5.3466497774934396e-05,5.448106549010845e-06,-2.076740565826185e-05,8.140665158862248e-06
-7.432038546539843e-05,2.4513030439266004e-05,4.347992216935381e-06,2.7981957828160375e-05
-7.484223897336051e-05,6.194315938046202e-05,3.162882421747781e-05,2.713081266847439e-05
-6.87097417539917e-05,9.062897152034566e-05,3.609457053244114e-05,1.2003031770291273e-05
-6.439617573050782e-05,9.573555871611461e-05,2.324834895262029e-05,2.225967364211101e-05
-6.111767288530245e-05,9.000095451483503e-05,1.3692201719095465e-05,7.194038335001096e-05
-5.385840995586477e-05,8.954740042099729e-05,1.464162596676033e-05,0.0001326350320596248
-4.276124673197046e-05,9.249385766452178e-05,1.2507526662375312e-05,0.00016570583102293313
-2.5207516955561005e-05,9.47394801187329e-05,3.455173782640486e-07,0.00016594438056927174
-1.2537982456706231e-06,8.453256305074319e-05,-1.7575865058461204e-05,0.00015396432718262076
1.6597121430095285e-05,4.6760305849602446e-05,-3.263897087890655e-05,0.0001407387462677434
2.179136936319992e-05,-1.0764288163045421e-05,-3.5856028262060136e-05,0.00012395830708555877
2.76050250249682e-05,-5.348295235307887e-05,-2.2462761990027502e-05,9.642390068620443e-05
3.8070087612140924e-05,-6.428375490941107e-05,9.562238119542599e-06,5.3338546422310174e-05
3.767584712477401e-05,-4.945457840221934e-05,5.260543184704147e-05,4.631302999769105e-06
1.497057110100286e-05,-1.7241076420759782e-05,8.432220056420192e-05,-2.6950088795274496e-05
-2.21616865019314e-05,2.7204561774851754e-05,8.747518586460501e-05,-3.317349182907492e-05
-4.77510729979258e-05,7.160694804042578e-05,6.887198105687276e-05,-1.8623766663949937e-05
-3.832009679172188e-05,8.525963494321331e-05,3.6748260754393414e-05,5.021640845370712e-07
2.5171732431772398e-06,7.532494782935828e-05,6.323608431557659e-06,9.475658771407325e-06
3.837893746094778e-05,8.786685793893412e-05,-1.6356514606741257e-05,1.6514672097400762e-05
4.3588621338130906e-05,0.00011798236664617434,-3.369211117387749e-05,5.418824002845213e-05
3.1870669772615656e-05,0.00011368603736627847,-3.645106335170567e-05,0.00011632883251877502
1.3913018847233616e-05,6.49848734610714e-05,-3.275199560448527e-05,0.00016425551439169794
-1.5073818758537527e-05,8.312233148899395e-06,-3.035571899090428e-05,0.00017182028386741877
-3.848879714496434e-05,-2.5649304006947204e-05,-2.7470558052300476e-05,0.00015244475798681378
-4.15882641391363e-05,-2.6523794076638296e-05,-2.4255945390905254e-05,0.00014113147335592657
-3.3920296118594706e-05,-3.2486996133229695e-06,-1.9520641217241064e-05,0.0001315068220719695
-3.184580782544799e-05,3.060244853259064e-05,-1.809354216675274e-05,8.533413347322494e-05
-3.9900554838823155e-05,5.977314503979869e-05,-1.7315780496574007e-05,3.085324806306744e-06
-4.9763781134970486e-05,7.30083993403241e-05,-1.67575417435728e-05,-4.725837425212376e-05
-5.471365511766635e-05,6.728751031914726e-05,-1.8953778635477647e-05,-2.9972596166771837e-05
-5.5546548537677154e-05,2.7132369723403826e-05,-2.7223677534493618e-05,5.8684022405941505e-06
-4.997438736609183e-05,-3.719886080943979e-05,-3.696338171721436e-05,9.53620474319905e-06
-3.7669611629098654e-05,-8.42275912873447e-05,-4.273600643500686e-05,-1.141668781201588e-05
-3.042048956558574e-05,-0.0001042672956828028,-4.495600296650082e-05,-2.545183633628767e-05
-3.624173405114561e-05,-0.00012472007074393332,-4.6035009290790185e-05,-9.739190318214241e-06
-5.149300704943016e-05,-0.00013958808267489076,-4.6984943764982745e-05,3.531440597726032e-05
-6.898293941048905e-05,-0.00010827891674125567,-4.369126327219419e-05,9.183022484648973e-05
-8.410378359258175e-05,-4.113115937798284e-05,-3.610612475313246e-05,0.00013947310799267143
-9.390620834892616e-05,2.5714689400047064e-06,-3.0993352993391454e-05,0.00015712737513240427
-0.00010118838690686971,1.2001551112916786e-05,-3.4505370422266424e-05,0.00014709570677950978
-0.0001036834146361798,2.006125941989012e-05,-4.0739669202594087e-05,0.00014084269059821963
-9.411895007360727e-05,4.45499099441804e-05,-4.051400537719019e-05,0.0001509652502136305
-8.14721715869382e-05,7.173716585384682e-05,-3.8576461520278826e-05,0.00017022037354763597
-7.723088492639363e-05,6.280330126173794e-05,-4.895894380751997e-05,0.00019311733194626868
-7.917416223790497e-05,7.609357453475241e-06,-6.815440428908914e-05,0.00020799516642000526
-7.58276873966679e-05,-4.830637772101909e-05,-7.374776032520458e-05,0.00021074534743092954
-5.883034100406803e-05,-6.628072151215747e-05,-5.600864824373275e-05,0.00019418206647969782
-3.095425927313045e-05,-1.6229647371801548e-05,-2.942502214864362e-05,0.00016744590539019555
9.522872232992086e-07,7.222717977128923e-05,2.3924776542116888e-06,0.00012688925198744982
2.392880014667753e-05,0.0001119123407988809,4.31932567153126e-05,5.150971264811233e-05
4.308903589844704e-05,9.947069338522851e-05,8.219067967729643e-05,-1.5379247997771017e-05
4.917059777653776e-05,7.331174856517464e-05,9.199218038702384e-05,-1.9352197341504507e-05
2.8487653253250755e-05,4.4952594180358574e-05,6.899474828969687e-05,8.912463272281457e-06
6.64957315166248e-06,1.7102338460972533e-05,4.145242928643711e-05,3.09174029098358e-05
2.906450845330255e-06,2.369461981288623e-06,3.508427835186012e-05,4.441510100150481e-05
1.2915193110529799e-05,7.865440238674637e-06,5.696711377822794e-05,3.246003689127974e-05
2.546048563090153e-05,4.072750743944198e-05,7.853623537812382e-05,8.074094694165979e-06
3.739402745850384e-05,7.475515303667635e-05,6.157592724775895e-05,-1.6619815141893923e-05
5.345994213712402e-05,8.997755503514782e-05,1.498658639320638e-05,-5.4029653256293386e-05
7.9549070505891e-05,9.863638115348294e-05,-1.850258558988571e-05,-0.00010259278496960178
0.00010008850949816406,0.00010162374383071437,-2.481810952303931e-05,-0.00012805014557670802
0.00010399836173746735,8.394539327127859e-05,-2.442047480144538e-05,-0.00011104684381280094
0.00010102877422468737,4.589986929204315e-05,-3.428491982049309e-05,-7.894737791502848e-05
9.282509563490748e-05,1.1863727195304818e-05,-4.5972377847647294e-05,-7.19929303159006e-05
6.965272768866271e-05,-8.896842700778507e-06,-4.5394135668175295e-05,-9.908989886753261e-05
3.643189847934991e-05,-1.3851019502908457e-05,-3.5804830986307934e-05,-0.00011421681847423315
7.83405175752705e-06,-3.819182438746793e-06,-2.7279560526949354e-05,-7.863905193516985e-05
-2.266715091536753e-05,8.162823178281542e-06,-2.2053234715713188e-05,-1.2350636097835377e-05
-6.981319165788591e-05,1.0922438377747312e-05,-1.9397048163227737e-05,4.219242327963002e-05
-0.00011580507998587564,1.5400757547467947e-05,-1.8437087419442832e-05,7.3832314228639e-05
-0.0001277210540138185,2.178206887037959e-05,-2.0345254597486928e-05,9.132010745815933e-05
-0.00011328777327435091,2.699142714845948e-05,-2.1464147721417248e-05,9.689413127489388e-05
-9.676828631199896e-05,3.080099850194529e-05,-1.5885316315689124e-05,9.775154467206448e-05
-8.154231181833893e-05,1.7210708392667584e-05,-1.2150015209044795e-05,0.0001051866274792701
-7.413419371005148e-05,-3.385519903531531e-06,-1.3749076970270835e-05,0.00011590656504267827
-6.701253732899204e-05,2.637142870298703e-06,-1.426781545887934e-05,0.0001287685299757868
-5.2372673962963745e-05,2.4449429474771023e-05,-1.3241442502476275e-05,0.00014394483878277242
-4.8167457862291485e-05,4.151410757913254e-05,-8.872604666976258e-06,0.00015379277465399355
-6.268130528042093e-05,4.052953590871766e-05,-5.60099033464212e-06,0.00013813792611472309
-8.179360156645998e-05,2.5478200768702663e-05,-2.8255376491870265e-06,0.00011185377661604434
-8.391566370846704e-05,9.180859706248157e-06,2.639648357671831e-07,0.000103589947684668
-7.004877988947555e-05,-8.649248229630757e-06,-1.080048377843923e-06,0.00010905502131208777
-5.3185973229119554e-05,-2.9254018954816274e-05,-3.1989354738470865e-06,0.00011400044604670256
-5.007817526347935e-05,-3.2808908144943416e-05,-5.121164122101618e-06,0.00011618321150308475
-5.824544859933667e-05,-8.961761523096357e-06,-9.852521543507464e-06,0.0001242389844264835
-7.02413817634806e-05,2.261656118207611e-05,-1.2334843631833792e-05,0.00014089707110542804
-7.780174928484485e-05,4.867636744165793e-05,-8.838367648422718e-06,0.0001554881891934201
-7.577868382213637e-05,6.931147800059989e-05,-5.919979230384342e-06,0.00015229915152303874
-6.890141958137974e-05,8.259520109277219e-05,-9.031428817252163e-06,0.00012474590039346367
-6.422231672331691e-05,8.649544906802475e-05,-1.4775966519664507e-05,8.602128946222365e-05
-6.096732249716297e-05,9.635141759645194e-05,-1.5423302102135494e-05,6.746623694198206e-05
-4.8768692067824304e-05,0.00010779886360978708,-1.1587712833716068e-05,8.271972910733894e-05
-3.568482861737721e-05,8.55352554935962e-05,-8.362377229786944e-06,0.00011164621537318453
-3.2637472031638026e-05,1.9113076632493176e-05,-1.114504902943736e-05,0.00012437326950021088
-2.9721464670728892e-05,-3.155859303660691e-05,-1.3022472558077425e-05,0.0001136059217969887
-2.193077489209827e-05,-2.0231615053489804e-05,-9.33025319227454e-08,8.926572627387941e-05
-2.779249189188704e-05,2.4776738428045064e-05,2.3223765310831368e-05,6.935479905223474e-05
-3.9633159758523107e-05,6.84682818246074e-05,3.905694029526785e-05,5.684220013790764e-05
-2.5601271772757173e-05,0.0001011720160022378,3.610681960708462e-05,5.11202379129827e-05
1.0737799129856285e-05,0.0001396399165969342,1.7045367712853476e-05,5.093093204777688e-05
3.840656063403003e-05,0.00016469310503453016,-5.20675757798017e-06,2.5231438485207036e-05
4.734089816338383e-05,9.836792014539242e-05,-1.8782100596581586e-05,-1.5223318769130856e-05
4.520505899563432e-05,-2.715771915973164e-05,-2.6578145480016246e-05,-1.054580479831202e-05
3.959530658903532e-05,-9.610760753275827e-05,-2.5040564651135355e-05,3.6313696909928694e-05
2.875699101423379e-05,-5.989893907099031e-05,-1.7300379113294184e-05,7.763847679598257e-05
2.1966563508613035e-05,9.393262189405505e-06,-1.7346650565741584e-05,9.571677219355479e-05
2.0391493308125064e-05,1.2321619578870013e-05,-2.479977956681978e-05,9.368112660013139e-05
1.3893384675611742e-05,-5.3876268793828785e-05,-3.4937180316774175e-05,8.081398846115917e-05
-5.181233063922264e-06,-0.00012657845218200237,-4.284248279873282e-05,5.716460509574972e-05
-3.638416819740087e-05,-0.00016228087770286947,-4.9715508794179186e-05,2.1678166376659647e-05
-6.206909165484831e-05,-0.00014806159015279263,-5.003612022846937e-05,2.7166242944076657e-06
-6.401474092854187e-05,-0.00010413723066449165,-4.3133546569151804e-05,1.626143421162851e-05
-4.514685497269966e-05,-6.164645310491323e-05,-3.409082637517713e-05,4.3791369535028934e-05
-2.055264667433221e-05,-2.8415988708729856e-05,-2.683011189219542e-05,5.7468292652629316e-05
-1.0997276149282698e-05,2.8526717414933955e-06,-1.9295479432912543e-05,4.624022767529823e-05
-2.7602007321547717e-05,3.9807360735721886e-05,-6.532111001433805e-06,2.4729799406486563e-05
-5.870456516277045e-05,7.537863712059334e-05,1.355448694084771e-05,1.870210689958185e-05
-9.374396177008748e-05,0.0001053450905601494,3.977584492531605e-05,4.150826498516835e-05
-0.00011994274973403662,0.0001337335561402142,6.053090692148544e-05,8.018994412850589e-05
-0.00012578566384036094,0.00015722143871244043,6.35242322459817e-05,0.0001138960215030238
-0.00011794606689363718,0.0001541079254820943,4.54463079222478e-05,0.00013683317229151726
-0.00010958360508084297,0.0001207331515615806,1.614863140275702e-05,0.00015321321552619338
-9.891648369375616e-05,7.294893293874338e-05,-1.1861463462992106e-05,0.0001610578183317557
-8.260124013759196e-05,3.6751112929778174e-05,-2.7186306397197768e-05,0.00015788747987244278
-6.039060463081114e-05,2.393874092376791e-05,-2.6990968763129786e-05,0.00013469145051203668
-3.064604970859364e-05,2.4213388314819895e-05,-2.2241243641474284e-05,8.416855416726321e-05
-3.0291050734376768e-06,3.037448004761245e-05,-2.2706224626745097e-05,1.946562042576261e-05
1.642426104808692e-05,3.7102912756381556e-05,-2.5229073798982427e-05,-2.6886815248872153e-05
2.0944755306118168e-05,2.855917227861937e-05,-2.7134445190313272e-05,-6.734521593898535e-05
5.77659193368163e-06,9.493675861449447e-06,-2.6119601898244582e-05,-0.00013612242764793336
-2.87719490188465e-06,3.2581087907601614e-06,-2.0863308236585e-05,-0.000173888576682657
5.2221321311662905e-06,1.872308894235175e-05,-1.1905140127055347e-05,-0.00014349690172821283
1.2553167834994383e-05,3.8970458263065666e-05,-8.615244041720871e-06,-9.341865370515734e-05
1.3392039363679942e-05,4.061444997205399e-05,-9.013167982629966e-06,-4.373336923890747e-05
1.826596235332545e-05,3.440213549765758e-05,-1.0824463060998823e-05,7.999784429557621e-06
1.2743206752929837e-05,3.186709000146948e-05,-1.94909061974613e-05,5.31136647623498e-05
-8.043430170801003e-06,3.1230942113325e-05,-2.5749506676220335e-05,8.303391223307699e-05
-2.942089304269757e-05,3.571690831449814e-05,-2.285436130478047e-05,0.00011070504842791706
-3.645592005341314e-05,4.2859021050389856e-05,-1.3669819963979535e-05,0.00013875917647965252
-2.952879549411591e-05,4.5501048589358106e-05,-3.4761121696647024e-06,0.00014756256132386625
-2.7690257411450148e-05,3.835627649095841e-05,3.88957823815872e-06,0.000126959930639714
-3.609354462241754e-05,2.647068686201237e-05,1.7807199128583306e-06,0.0001015121306409128
-4.354487464297563e-05,1.4265218851505779e-05,-1.013770634017419e-05,0.00010562627721810713
-4.128314321860671e-05,5.3285052672435995e-06,-2.530188976379577e-05,0.00013121688971295953
-3.943947740481235e-05,1.9743540633498924e-06,-3.668616045615636e-05,0.00013767587370239198
-4.3711959733627737e-05,-4.5276840410224395e-07,-4.533610263024457e-05,0.00010328437929274514
-4.146673018112779e-05,-1.0571387065283488e-05,-5.318982221069746e-05,4.2632385884644464e-05
-1.0494640264369082e-05,-2.4703283997951075e-05,-6.05577151873149e-05,-1.7341131751891226e-05
4.212034400552511e-05,-3.176009704475291e-05,-6.784425204386935e-05,-5.269739267532714e-05
8.239415910793468e-05,-3.7036556022940204e-05,-7.657738024136052e-05,-6.232616578927264e-05
9.220050560543314e-05,-5.0949172873515636e-05,-8.295350562548265e-05,-7.640674448339269e-05
7.373610424110666e-05,-7.08036168362014e-05,-8.183881436707452e-05,-0.00011825398541986942
2.64803966274485e-05,-7.239559636218473e-05,-6.501479219878092e-05,-0.00016577632050029933
-2.178832801291719e-05,-3.362390270922333e-05,-2.8424930860637687e-05,-0.00017429220315534621
-3.485941488179378e-05,2.604258042993024e-05,7.455666946043493e-06,-0.00011475738574517891
-2.4815188226057217e-05,5.81004933337681e-05,2.051934461633209e-05,-4.029305273434147e-05
-2.813890387187712e-05,5.742201756220311e-05,2.1125642888364382e-05,3.951719918404706e-06
-4.776601417688653e-05,4.071275543537922e-05,2.739630508585833e-05,3.430226934142411e-05
-6.714255141559988e-05,1.742546010063961e-05,4.2479325202293694e-05,5.32155463588424e-05
-7.365862256847322e-05,1.9806322598014958e-05,6.784686411265284e-05,7.131713937269524e-05
-6.167891115183011e-05,5.702063936041668e-05,8.627966599306092e-05,9.836499521043152e-05
-4.289750359021127e-05,0.00011275662836851552,8.317569881910458e-05,0.000133013105369173
-2.95653662760742e-05,0.00015976777649484575,5.615362897515297e-05,0.00015795559738762677
-1.6159303413587622e-05,0.00016915467858780175,1.3175892490835395e-05,0.000168962636962533
-2.6557436285656877e-06,0.00014989332703407854,-2.560639950388577e-05,0.0001777992001734674
1.5881088302194257e-06,0.00012587005039677024,-3.985560033470392e-05,0.00018956727581098676
-6.269802270253422e-06,0.00011222527973586693,-3.252508395235054e-05,0.00019197013170924038
-2.274337202834431e-05,0.00010061015927931294,-1.918700036185328e-05,0.00017353094881400466
-3.5726498026633635e-05,8.414161129621789e-05,-1.1595792784646619e-05,0.0001334721309831366
-3.9589467633049935e-05,5.895521098864265e-05,-1.0715990356402472e-05,6.663074600510299e-05
-3.837631447822787e-05,3.4243181289639324e-05,-1.05214794530184e-05,-6.6835946199717e-06
-3.7325738958315924e-05,2.5809204089455307e-05,-6.3727597989782225e-06,-2.726761158555746e-05
-2.844779555744026e-05,4.14357527915854e-05,5.098310793982819e-06,3.0276640245574526e-05
-6.770193067495711e-06,7.428116805385798e-05,1.4755035408597905e-05,0.00011082743731094524
1.8411998098599724e-05,0.00010719570855144411,1.0777957868413068e-05,0.00016067248361650854
3.6608358641387895e-05,0.00011647682549664751,-4.200849161861697e-06,0.00017769221449270844
3.785790613619611e-05,7.948263373691589e-05,-1.5115250789676793e-05,0.00017995614325627685
2.415372546238359e-05,1.5798430467839353e-05,-1.4080215805734042e-05,0.00017472897889092565
5.873390819033375e-06,-2.8081230993848294e-05,-2.9782620458718156e-06,0.00016609742306172848
-2.0618292182916775e-05,-3.5675635444931686e-05,2.3505092485720525e-06,0.00015755674394313246
-5.9363221225794405e-05,-1.8359063687967137e-05,-7.006276518950472e-06,0.00014548655599355698
-0.00010935078898910433,4.225374141242355e-06,-1.990802411455661e-05,0.00012755165516864508
-0.00013938217307440937,-3.1182662496576086e-06,-2.539187335059978e-05,0.0001101515517802909
-0.00014499413373414427,-3.754930730792694e-05,-2.6831916329683736e-05,7.937318150652573e-05
-0.00013834367564413697,-7.231577183119953e-05,-2.2215246644918807e-05,3.705334893311374e-05
-0.00010013240535045043,-8.822682138998061e-05,-1.7348642359138466e-05,3.909740371454973e-06
-5.1657734729815274e-05,-9.917801799019799e-05,-1.9241288100602105e-05,-3.5051325539825484e-05
-2.9635924875037745e-05,-0.00011539506522240117,-2.609192415548023e-05,-8.131539652822539e-05
-2.4035745809669606e-05,-0.00011430175072746351,-2.7390509785618633e-05,-9.526848589302972e-05
-5.2885484365106095e-06,-9.715375199448317e-05,-2.1280704459059052e-05,-6.11195937381126e-05
2.338022750336677e-05,-7.921833457658067e-05,-2.6747646188596264e-05,-1.039855123963207e-05
4.77555840916466e-05,-5.592506568063982e-05,-4.2669998947530985e-05,2.615451558085624e-05
5.615638292510994e-05,-2.6421139409649186e-05,-5.409525692812167e-05,4.730233922600746e-05
4.458682451513596e-05,-7.544369395873218e-07,-5.0926595577038825e-05,6.791780469939113e-05
2.2497682948596776e-05,1.9786868506344035e-05,-3.303895937278867e-05,0.00010601252870401368
-1.970499170056428e-06,4.0408118366030976e-05,-8.663709195388947e-06,0.00016297776892315596
-3.4689037420321256e-05,6.0685950302286074e-05,8.90871524461545e-06,0.00021445781749207526
-6.97263894835487e-05,7.320181612158194e-05,1.626574339752551e-05,0.000240550929447636
-8.385759429074824e-05,7.019655458861962e-05,1.9855055143125355e-05,0.00024760825908742845
-7.627154263900593e-05,5.9801561292260885e-05,2.3050984964356758e-05,0.0002515219966880977
-6.712441972922534e-05,5.898342715227045e-05,2.8424154152162373e-05,0.00025888803065754473
-6.771314656361938e-05,6.953546107979491e-05,3.7408583011711016e-05,0.0002691930567380041
-7.197144441306591e-05,7.715652463957667e-05,4.3991825805278495e-05,0.00027174281422048807
-6.182435026858002e-05,6.759163807146251e-05,4.016554885311052e-05,0.000252138648647815
-2.9246710255392827e-05,4.319442086853087e-05,2.2829208319308236e-05,0.00020292919361963868
-1.5214891391224228e-06,1.6867119484231807e-05,-4.1223580637961277e-07,0.000126879385788925
-2.253667162221973e-06,-1.6581991246766847e-07,-2.106806459778454e-05,1.3223128007666674e-05
-2.1149822714505717e-05,-5.7865372582455166e-06,-3.181767897331156e-05,-0.00015357142547145486
-2.1379912141128443e-05,6.996943739068229e-06,-2.9088858354953118e-05,-0.0003110702964477241
8.67879771249136e-06,2.9613825972774066e-05,-2.197615867771674e-05,-0.00031503927311860025
3.0472379876300693e-05,3.486167042865418e-05,-1.912581683427561e-05,-0.00020845716062467545
2.9985214496264234e-05,3.277209907537326e-05,-2.464415956637822e-05,-0.00012026896001771092
2.6191057258984074e-05,4.5964232413098216e-05,-2.818674147420097e-05,-6.554560241056606e-05
2.992047302541323e-05,6.0820220824098215e-05,-2.4871194909792393e-05,-5.3660725825466216e-05
4.445315062184818e-05,5.941552808508277e-05,-1.8172609998146072e-05,-5.98757469560951e-05
5.6270557251991704e-05,5.0559468945721164e-05,-4.983127837476786e-06,-6.57674390822649e-05
5.05289135617204e-05,4.2417465010657907e-05,5.034770310885506e-06,-5.873118425370194e-05
3.393392762518488e-05,2.9532746339100413e-05,-3.7949216675770003e-06,-4.0313636418432e-05
2.9559007089119405e-05,2.4992219550767913e-05,-2.6048563086078502e-05,-1.7948250388144515e-05
3.7335557863116264e-05,2.790375947370194e-05,-4.553930557449348e-05,2.647402368438634e-07
3.089127130806446e-05,1.4377469597093295e-05,-5.736043749493547e-05,2.4547904104110785e-05
3.97071789848269e-06,-5.8016858019982465e-06,-5.5957269069040194e-05,6.255671905819327e-05
-3.355527587700635e-05,-4.194933808321366e-06,-4.123964754398912e-05,0.0001066508557414636
-7.05428610672243e-05,3.4585134471853962e-06,-2.195090928580612e-05,0.0001539240183774382
-0.00010010480764321983,-1.83062195446837e-06,-2.864238467736868e-06,0.00020302081247791648
-0.00012524129124358296,3.5219864003011025e-06,1.9811677702818997e-05,0.0002476744120940566
-0.00014891666069161147,3.8733349356334656e-05,4.5204225898487493e-05,0.0002651832182891667
-0.0001623670250410214,8.144098683260381e-05,5.98489677940961e-05,0.00023885218251962215
-0.00015413977962452918,9.509783558314666e-05,4.752857785206288e-05,0.0001734608958940953
-0.00011863747204188257,7.383081538137048e-05,1.184750180982519e-05,0.00011942134005948901
-7.020943303359672e-05,4.081009319634177e-05,-1.7376431060256436e-05,8.569957572035491e-05
-3.959859532187693e-05,1.416234954376705e-05,-2.8773789381375536e-05,2.4403147108387202e-05
-3.125277362414636e-05,4.340057785157114e-06,-3.754299177671783e-05,-5.474360295920633e-05
-2.156579284928739e-05,3.0889600566297304e-06,-4.459535557543859e-05,-9.286768909078091e-05
3.2254231427941704e-06,1.0773219401016831e-05,-4.250285564921796e-05,-0.00011431315215304494
2.6193802113994025e-05,1.47161481436342e-05,-4.323222310631536e-05,-0.00017379241762682796
2.998349918925669e-05,-9.824716471484862e-06,-5.2615836466429755e-05,-0.00023041955137159675
3.1737436074763536e-05,-2.5570489015080966e-05,-5.19043933309149e-05,-0.00018902914598584175
4.3585860112216324e-05,-1.2537081602204125e-05,-3.73704097000882e-05,-7.566731801489368e-05
5.393363971961662e-05,2.3431186491507106e-05,-1.8971535610035062e-05,1.039679682435235e-05
5.216968565946445e-05,5.885270729777403e-05,-2.965247631436796e-06,4.148257721681148e-05
3.4800505090970546e-05,6.535877037094906e-05,3.8852090256114025e-06,5.4578136769123375e-05
6.979580120969331e-06,4.739436917589046e-05,1.0088691624332569e-06,7.267975888680667e-05
-2.405574377917219e-05,2.5614266633056104e-05,-5.129375495016575e-06,9.214479359798133e-05
-4.375867865746841e-05,1.772014729795046e-05,-2.0287038751121145e-06,0.0001090194855351001
-4.3411157093942165e-05,2.716402741498314e-05,6.457265044446103e-06,0.00012027393677271903
-3.2245654438156635e-05,5.0691862270468846e-05,6.13761903878185e-06,0.00012762560800183564
-2.8127098630648106e-05,7.64669748605229e-05,-2.04284469873528e-06,0.00013286297325976193
-3.614718661992811e-05,8.782094664638862e-05,-7.130514859454706e-06,0.0001414440484950319
-4.8702542699174955e-05,8.632598473923281e-05,-4.4192861423653085e-06,0.00015558845188934356
-5.6673972721910104e-05,9.377550304634497e-05,6.596782895940123e-06,0.0001766826753737405
-5.8743098634295166e-05,0.00011411769082769752,2.089000554406084e-05,0.00020109186880290508
-6.281511014094576e-05,0.00011828661808976904,2.5853940314846113e-05,0.000219841516809538
-7.301347068278119e-05,8.379178325412795e-05,1.4608364836021792e-05,0.0002213931584265083
-8.084322325885296e-05,2.813823266478721e-05,-4.111172074772185e-06,0.0002001039101742208
-7.619628013344482e-05,-1.6916692402446643e-05,-1.9507837350829504e-05,0.00015274900943040848
-6.482480239355937e-05,-2.7487587431096472e-05,-2.8243399356142618e-05,0.00011100646952399984
-5.639453956973739e-05,-7.972780622367281e-06,-2.847670839400962e-05,0.00012297519424464554
-5.676218279404566e-05,1.2319349480094388e-05,-2.0109922843403183e-05,0.00017015809135045856
-6.36149852653034e-05,1.3528727322409395e-05,-1.1905149222002365e-05,0.00018971761164721102
-6.818996916990727e-05,4.360295406513615e-06,-1.6756664990680292e-05,0.0001643382856855169
-6.87309802742675e-05,-3.4381421301077353e-06,-2.959323683171533e-05,0.0001278342679142952
-7.03299228916876e-05,-4.8103570406965446e-06,-3.423620364628732e-05,9.57881347858347e-05
-8.363275264855474e-05,-4.548825017991476e-06,-2.2566628103959374e-05,4.327742135501467e-05
-0.00010335286788176745,-1.3917739124735817e-05,-6.968573416088475e-06,-2.196586319769267e-05
-0.0001071236765710637,-1.4027067663846537e-05,-3.5018847484025173e-06,-2.9964550776639953e-05
-7.867744716349989e-05,8.876019819581416e-06,-1.9170058294548653e-05,2.9315020583453588e-05
-3.001889490406029e-05,2.0190042050671764e-05,-4.2811727325897664e-05,8.025083661777899e-05
5.345553290680982e-06,-7.545420430687955e-06,-4.163059566053562e-05,8.995682583190501e-05
1.5376650480902754e-05,-4.067097688675858e-05,-1.395224899169989e-05,7.402752089546993e-05
-3.98038810089929e-06,-4.3872263631783426e-05,8.612395504314918e-06,6.312898040050641e-05
-3.5261375160189345e-05,-2.972360198327806e-05,1.0618927262839861e-05,6.0168600612087175e-05
-5.355506800697185e-05,-2.9868882847949862e-05,-1.015783027469297e-06,4.7421835915884e-05
-4.883141446043737e-05,-5.051247717346996e-05,-1.8775626813294366e-05,6.83906137055601e-06
-3.0712926673004404e-05,-7.300225115614012e-05,-3.5878820199286565e-05,-4.9992471758741885e-05
-1.0827963706105947e-05,-9.201606007991359e-05,-3.460250809439458e-05,-9.456088446313515e-05
1.33843741423334e-05,-0.000102210309705697,-2.0330330698925536e-06,-0.0001270904904231429
4.751081360154785e-05,-8.46695838845335e-05,4.493194865062833e-05,-0.000168523722095415
9.163139475276694e-05,-3.051935345865786e-05,6.853714876342565e-05,-0.0002081455895677209
0.00013289321213960648,3.337851740070619e-05,5.2271148888394237e-05,-0.00020185625180602074
0.00014856935013085604,7.554011244792491e-05,1.885943129309453e-05,-0.00013842569023836404
0.00012681476073339581,9.883553138934076e-05,-2.8156054554528964e-07,-5.260097896098159e-05
8.781268843449652e-05,0.00011527905007824302,-1.1405653594920295e-06,9.038351890922058e-06
4.7434317821171135e-05,0.00011226156493648887,-4.75375145470025e-06,3.854768874589354e-05
1.5383056961582042e-05,9.488448267802596e-05,-1.5923520550131798e-05,6.860023859189823e-05
-5.293424692354165e-06,9.285686246585101e-05,-2.060793303826358e-05,0.00011860400263685733
-2.3776099624228664e-05,8.60372674651444e-05,-1.3219250831753016e-05,0.00014575298700947315
-3.96774266846478e-05,4.943177191307768e-05,-8.889246601029299e-07,0.00011320499470457435
-4.3601783545454964e-05,1.090384648705367e-05,5.451723154692445e-06,7.067435944918543e-05
-3.3873264328576624e-05,-2.154258982045576e-05,7.6367305155145e-06,8.658799197291955e-05
-2.563805173849687e-05,-3.670751175377518e-05,5.591487024503294e-06,0.00012057172716595232
-2.3269287339644507e-05,-2.9604085284518078e-05,-2.2592107598029543e-06,0.00012369196338113397
-2.0530402252916247e-05,-7.841636033845134e-06,-1.2426777175278403e-05,9.837948891799897e-05
-3.0671268177684397e-05,3.584025034797378e-05,-2.034567114606034e-05,6.471559754572809e-05
-5.2803334256168455e-05,7.8434037277475e-05,-2.0107441741856746e-05,3.710305463755503e-05
-7.357226422755048e-05,0.00010275482782162726,-1.6579540897510014e-05,3.2371321140090004e-05
-8.477083611069247e-05,0.00010632051998982206,-1.9654829884530045e-05,7.095381442923099e-05
-8.247887308243662e-05,0.00011417574569350109,-2.4132577891577967e-05,0.00013634115748573095
-6.64063190924935e-05,0.00013141590170562267,-2.124196726072114e-05,0.0001899589115055278
-5.191146919969469e-05,0.00013617347576655447,-1.4900230780767743e-05,0.00020122683781664819
-5.036525908508338e-05,0.00011027434811694548,-1.3054657756583765e-05,0.00016873782442416996
-5.181564119993709e-05,6.004142778692767e-05,-1.2580402653838973e-05,0.00010939618368865922
-4.756093039759435e-05,1.7728567399899475e-05,-7.982527677086182e-06,4.9236467020818964e-05
-4.469162740861066e-05,-5.089346814202145e-06,-7.430777714034775e-06,-8.946790330810472e-06
-5.2837647672276944e-05,-2.3949713067850098e-05,-1.5096431525307707e-05,-4.941079532727599e-05
-5.91406314924825e-05,-4.36549489677418e-05,-2.5546263714204542e-05,-2.88026003545383e-05
-4.7369121602969244e-05,-5.086733654025011e-05,-3.824519444606267e-05,4.411732152220793e-05
-2.4136979845934547e-05,-4.401264595799148e-05,-5.6897995818872005e-05,9.332263289252296e-05
-1.3773362297797576e-05,-2.792594204947818e-05,-6.99054216966033e-05,7.51028346712701e-05
-1.933568637468852e-05,-7.502610515075503e-06,-6.285925337579101e-05,2.06107633857755e-05
-2.2886975784786046e-05,7.673134859942365e-06,-4.2043211578857154e-05,-6.347396720229881e-06
-2.3715454517514445e-05,1.9932044779125135e-06,-2.2973332306719385e-05,1.8059377907775342e-05
-3.610253406804986e-05,-1.6251382476184517e-05,-5.179224899620749e-06,5.608989158645272e-05
-5.345004683476873e-05,-2.923162537626922e-05,1.3636733456223737e-05,8.338005864061415e-05
-4.835500294575468e-05,-3.175461824866943e-05,2.0291929104132578e-05,9.20226812013425e-05
-2.495370245014783e-05,-1.5158090718614403e-05,2.7515465262695216e-05,8.13533115433529e-05
-2.367886008869391e-05,2.837349529727362e-05,5.129972851136699e-05,6.318704254226759e-05
-3.5857767215929925e-05,6.793006468797103e-05,6.511282845167443e-05,4.751136293634772e-05
-3.20096623909194e-05,8.367080590687692e-05,5.0949012802448124e-05,2.565057366155088e-05
-1.1123972399218474e-05,8.584336319472641e-05,1.2429577509465162e-05,1.1716758308466524e-05
9.266426786780357e-06,8.291660196846351e-05,-3.24319553328678e-05,3.4257816878380254e-05
5.4754241318732966e-06,8.450972381979227e-05,-5.911304833716713e-05,7.103222014848143e-05
-2.2398720830096863e-05,8.591147343395278e-05,-5.610470907413401e-05,9.290505113312975e-05
-4.953828829457052e-05,8.322108624270186e-05,-3.516786819091067e-05,0.00010137464414583519
-5.37733176315669e-05,8.591140067437664e-05,-1.6425443391199224e-05,0.00011487463052617386
-4.6241646487032995e-05,9.312919428339228e-05,-5.118235094414558e-06,0.0001277995470445603
-4.185497164144181e-05,8.73627868713811e-05,-1.8634406160344952e-06,0.0001363861811114475
-3.908530197804794e-05,6.449352076742798e-05,5.5612865423881885e-08,0.0001396930601913482
-3.830602872767486e-05,4.473884109756909e-05,1.0631468285282608e-05,0.00013850597315467894
-4.297331179259345e-05,4.020566848339513e-05,3.512200783006847e-05,0.00013373972615227103
-4.63179312646389e-05,3.4850505471695215e-05,5.977693581371568e-05,0.00012623766087926924
-4.4517830247059464e-05,-1.0802937140397262e-06,6.063258842914365e-05,0.00011288953828625381
-3.687943535624072e-05,-6.0419930377975106e-05,3.3873362554004416e-05,8.545085438527167e-05
-1.9572396922740154e-05,-9.20208913157694e-05,1.5335100442825933e-06,5.7179524446837604e-05
-1.8822488527803216e-06,-6.650348950643092e-05,-1.7881780877360143e-05,5.70947267988231e-05
-6.245345502975397e-06,-1.4341507267090492e-05,-2.397385105723515e-05,8.660952153149992e-05
-3.097102671745233e-05,1.5402003555209376e-05,-2.661498547240626e-05,0.00010140851372852921
-4.738620191346854e-05,9.340496944787446e-06,-2.9822900614817627e-05,8.004281698958948e-05
-4.5182870962889865e-05,-1.2312762919464149e-05,-3.303755147499032e-05,5.6936660257633775e-05
-3.5094581107841805e-05,-2.973536538775079e-05,-3.700288652908057e-05,7.438268949044868e-05
-3.3558237191755325e-05,-3.627053229138255e-05,-3.612636646721512e-05,0.00011221822205698118
-4.6614666644018143e-05,-2.133485941158142e-05,-2.6382705982541665e-05,0.0001333123946096748
-5.325290476321243e-05,1.362093462375924e-05,-1.354171854472952e-05,0.00012449519999790937
-3.845696119242348e-05,4.9635076720733196e-05,-4.332348908064887e-06,8.124187297653407e-05
-1.731172960717231e-05,6.457603740273044e-05,-3.427821638979367e-06,1.054006952472264e-05
1.1381082458683522e-06,5.202174361329526e-05,-1.1962776625296101e-05,-3.1564351957058534e-05
1.1706764780683443e-05,3.280297460150905e-05,-2.2666985387331806e-05,-5.5622999752813485e-06
1.0494615708012134e-05,1.9629420421551913e-05,-3.3248452382395044e-05,5.2188490371918306e-05
8.121594873955473e-06,9.925053745973855e-06,-4.1376941226189956e-05,8.553355291951448e-05
5.972499366180273e-06,-1.4150815559332841e-06,-5.222459731157869e-05,7.094115426298231e-05
-4.906403319182573e-07,-1.2127704394515604e-05,-6.705182022415102e-05,2.4327504434040748e-05
-8.068315764830913e-06,-8.424459338129964e-06,-7.528837159043178e-05,-1.9356397388037294e-05
-1.812049958971329e-05,9.615058843337465e-06,-6.995353760430589e-05,-2.9284597985679284e-05
-3.323342025396414e-05,2.6447600248502567e-05,-5.3378411394078285e-05,-1.2606802556547336e-05
-5.045613579568453e-05,2.924775799328927e-05,-3.496143835945986e-05,1.136778973886976e-05
-6.720407691318542e-05,1.858793075371068e-05,-2.0803097868338227e-05,3.316173024359159e-05
-7.907155668362975e-05,2.1478372218552977e-06,-1.1883944353030529e-05,3.830237619695254e-05
-8.314930164488032e-05,-2.6538443762547104e-06,-1.913308551593218e-06,3.954265139327617e-06
-7.509867282351479e-05,1.6277725080726668e-05,1.7640066289459355e-05,-5.114021405461244e-05
-5.1075552619295195e-05,5.580054858000949e-05,4.641254781745374e-05,-6.414729432435706e-05
-1.9889770555892028e-05,9.318617230746895e-05,6.495413981610909e-05,-1.2464306564652361e-05
1.0938576906482922e-06,0.00010080770880449563,5.2768969908356667e-05,5.4691106925019994e-05
3.97199028157047e-06,8.130073547363281e-05,1.7346845197607763e-05,8.697699377080426e-05
-4.730888576887082e-06,6.710959860356525e-05,-6.0847332861158065e-06,9.15383716346696e-05
-2.1765923520433716e-05,6.991138070588931e-05,2.7107539608550724e-06,0.00010693069634726271
-4.823022027267143e-05,6.667315028607845e-05,2.4301340090460144e-05,0.00014309227117337286
-7.183882553363219e-05,5.1404087571427226e-05,2.9745058782282285e-05,0.00017955088696908206
-8.251411054516211e-05,4.3452273530419916e-05,1.7804541130317375e-05,0.00020388765551615506
-7.85863448982127e-05,5.134229650138877e-05,2.151401531591546e-06,0.00021445452875923365
-7.136510976124555e-05,5.728971882490441e-05,-8.392422387260012e-06,0.00020394277817104012
-7.160718814702705e-05,4.1103055991698056e-05,-8.443759725196287e-06,0.00016659978427924216
-6.949611270101741e-05,1.214426174556138e-05,-3.579055146474275e-06,0.00013027607928961515
-5.829930887557566e-05,-6.823927378718508e-06,-6.06295714078442e-07,0.00010520988871576265
-3.770263720070943e-05,-6.31987450105953e-06,-1.066981781150389e-06,8.233651169575751e-05
-2.2944146621739492e-05,1.8694163372856565e-05,-1.0028237738879398e-05,6.705152918584645e-05
-1.2136327313783113e-05,4.3207350245211273e-05,-3.080528767895885e-05,4.68099387944676e-05
8.767035069467966e-06,3.958980232710019e-05,-5.014053749619052e-05,4.246806781793566e-07
3.3565131161594763e-05,2.097561809932813e-05,-5.2535840950440615e-05,-5.254355710349046e-05
5.264149876893498e-05,5.82691154704662e-06,-3.853355156024918e-05,-7.969861326273531e-05
6.012692756485194e-05,-4.593623998516705e-06,-2.078385659842752e-05,-8.353743032785133e-05
5.739642074331641e-05,-9.590358786226716e-06,-7.0754649641457945e-06,-6.004582974128425e-05
5.6695236708037555e-05,-1.342433847639768e-06,-1.8807905917128664e-06,-8.545265700377058e-06
6.26985274720937e-05,2.003258305194322e-05,-8.854290172166657e-06,5.106056414660998e-05
6.13618831266649e-05,3.9908572944113985e-05,-2.138503077731002e-05,9.263950778404251e-05
4.270920544513501e-05,5.557785334531218e-05,-2.8502718123490922e-05,0.00010984671098412946
1.4908375305822119e-05,7.730661309324205e-05,-2.0526071239146404e-05,0.00010554998880252242
-1.1479318345664069e-05,9.783571294974536e-05,-3.340894863868016e-06,7.070528226904571e-05
-3.386164826224558e-05,0.00010400559403933585,2.918789732575533e-06,-4.749059371533804e-06
-4.164196434430778e-05,0.00011303306382615119,-3.7473168958968017e-06,-7.717265543760732e-05
-2.8688791644526646e-05,0.00014318546163849533,-4.213133252051193e-06,-7.632848428329453e-05
-1.1461734175099991e-05,0.00017288545495830476,5.242549377726391e-06,-2.5604596885386854e-05
-1.7989341358770616e-06,0.0001675968087511137,9.069700354302768e-06,-5.665891876560636e-06
4.945924956700765e-06,0.00012520203017629683,2.4026383016462205e-06,-2.2605794583796524e-05
1.0043462680187076e-05,6.154030415927991e-05,-1.0067055882245768e-05,-2.8225254936842248e-05
1.539225377200637e-05,-7.137592547223903e-06,-2.633278381836135e-05,-6.06551839155145e-06
6.603303063457133e-06,-6.18986741756089e-05,-3.8986920117167756e-05,1.6716350728529505e-05
-2.968534863612149e-05,-9.689274156698957e-05,-4.3575488234637305e-05,2.246008261863608e-05
-6.300002132775262e-05,-0.00010109955474035814,-3.623548400355503e-05,3.490958988550119e-05
-5.983359369565733e-05,-6.865694012958556e-05,-1.6922263966989703e-05,7.00945092830807e-05
-4.316294507589191e-05,-3.616310641518794e-05,-3.768551323446445e-06,0.00011859304504469037
-4.422762867761776e-05,-4.0777184040052816e-05,-3.389370931472513e-06,0.00014523767458740622
-6.888392817927524e-05,-6.431245128624141e-05,-3.355022727191681e-06,0.00014015330816619098
-9.112783300224692e-05,-6.438258424168453e-05,1.61173682045046e-06,0.00012780811812262982
-7.403031486319378e-05,-4.083553722011857e-05,7.458506843249779e-06,0.00011953111970797181
-4.117216303711757e-05,-7.828045454516541e-06,5.981786216580076e-06,0.00010835165448952466
-2.430979657219723e-05,3.491218012641184e-05,-9.816033070819685e-07,8.709078974789008e-05
-2.223968658654485e-05,6.450366345234215e-05,-4.680053280026186e-06,5.621100353891961e-05
-2.620714803924784e-05,5.7357763580512255e-05,-7.3911364779633e-06,3.2190589990932494e-05
-3.1056621082825586e-05,1.400784731231397e-05,-1.286815768253291e-05,2.814045365084894e-05
-3.959323657909408e-05,-3.36267075908836e-05,-2.0009738364024088e-05,3.698303044075146e-05
-5.306197999743745e-05,-5.2759191021323204e-05,-2.1588777599390596e-05,6.061889507691376e-05
-6.610084528801963e-05,-3.479456790955737e-05,-1.1515035112097394e-05,0.00011210175580345094
-6.887817289680243e-05,1.718168391562358e-06,3.853030648315325e-06,0.00017736795416567475
-6.268141441978514e-05,3.3945088944165036e-05,9.361687261844054e-06,0.00022082343639340252
-5.546383545151912e-05,4.2527171899564564e-05,-2.3601082830282394e-06,0.00023058765509631485
