-3.4489981771912426e-05,2.6076260837726295e-05,-2.1904326786170714e-05,2.1977912183501758e-05
-3.327156082377769e-05,2.1238281988189556e-05,-2.1751262465841137e-05,2.5354682293254882e-05
-3.5035089240409434e-05,1.6300957213388756e-05,-2.0547138774418272e-05,2.8519560146378353e-05
-4.2060299165314063e-05,1.67036250786623e-05,-1.8138383893528953e-05,2.9208018531790003e-05
-5.11359867232386e-05,2.0012254026369192e-05,-2.068773210339714e-05,3.0138706279103644e-05
-6.30158101557754e-05,2.3060996682033874e-05,-2.5233061023755e-05,3.164022564305924e-05
-6.873863458167762e-05,2.5494487999822013e-05,-2.708332431211602e-05,3.118345921393484e-05
-6.363585271174088e-05,2.3065824279910885e-05,-2.67563336819876e-05,2.702817255340051e-05
-5.6206135923275724e-05,1.596760739630554e-05,-2.443080120428931e-05,2.3125014195102267e-05
-5.1972059736726806e-05,9.767861229192931e-06,-2.50261728069745e-05,2.513284380256664e-05
-4.859194450546056e-05,9.241070074494928e-06,-2.8269256290514022e-05,2.92250988422893e-05
-4.497843838180415e-05,1.7740479961503297e-05,-2.8010197638650425e-05,3.198707418050617e-05
-4.288119089324027e-05,2.8634762202273123e-05,-2.214525557064917e-05,3.187337642884813e-05
-4.766682832268998e-05,3.303807170595974e-05,-1.690477438387461e-05,2.9617118343594484e-05
-5.393054379965179e-05,2.9400087441899814e-05,-1.7997641407418996e-05,2.600287552922964e-05
-5.234217314864509e-05,2.5684594220365398e-05,-2.220263922936283e-05,2.3252890969160944e-05
-4.625830479199067e-05,2.4888395273592323e-05,-2.5464407372055575e-05,2.157080416509416e-05
-4.463834557100199e-05,2.435807982692495e-05,-2.8359689167700708e-05,1.9894734577974305e-05
-4.634041397366673e-05,2.3433613023371436e-05,-2.9143653591745533e-05,1.9278935724287294e-05
-4.617513332050294e-05,2.274514190503396e-05,-2.714121001190506e-05,2.265314651594963e-05
-5.0996859499718994e-05,2.3799604605301283e-05,-2.7133686671731994e-05,2.744771154539194e-05
-5.9014808357460424e-05,2.6734513085102662e-05,-2.923157262557652e-05,2.6189432901446708e-05
-5.751707431045361e-05,2.8992450097575784e-05,-2.8553540687425993e-05,2.0556773961288854e-05
-4.9145000957651064e-05,3.26402296195738e-05,-2.569097159721423e-05,1.9424138372414745e-05
-4.5132448576623574e-05,4.2782241507666185e-05,-2.5825855118455365e-05,2.4777158614597283e-05
-4.7683748562121764e-05,5.6183718697866425e-05,-2.7057842089561746e-05,2.9495276976376772e-05
-5.140035864314996e-05,6.251033482840285e-05,-2.574772952357307e-05,3.052327883779071e-05
-4.759648072649725e-05,5.290166154736653e-05,-2.3015731130726635e-05,2.9415308745228685e-05
-4.234263178659603e-05,3.900102456100285e-05,-2.2391179300029762e-05,2.9034586987108923e-05
-3.942859621020034e-05,3.671008380479179e-05,-2.684207538550254e-05,3.306498911115341e-05
-4.002785499324091e-05,4.229928890708834e-05,-2.935553675342817e-05,3.6322802770882845e-05
-4.3867250496987253e-05,4.5252381823956966e-05,-2.6489064111956395e-05,3.505069253151305e-05
-4.519151843851432e-05,4.186650039628148e-05,-2.766485522442963e-05,3.4475411666790023e-05
-4.6416709665209055e-05,3.438308340264484e-05,-2.989930726471357e-05,3.4657852665986866e-05
-4.563464244711213e-05,2.4362376279896125e-05,-2.9043261747574434e-05,3.1536354072159156e-05
-4.158658703090623e-05,1.8128293959307484e-05,-2.9546568839577958e-05,2.7249752747593448e-05
-4.0704358980292454e-05,1.8945605916087516e-05,-3.181329884682782e-05,2.469903301971499e-05
-4.604529749485664e-05,2.5245053620892577e-05,-3.3837175578810275e-05,2.4307541025336832e-05
-5.324125595507212e-05,3.3109663490904495e-05,-3.4244894777657464e-05,2.662675797182601e-05
-5.505913577508181e-05,3.240349906263873e-05,-3.293508052593097e-05,2.785528704407625e-05
-5.288302054395899e-05,1.9237537344451994e-05,-3.12962984025944e-05,2.769521961454302e-05
-5.163587047718465e-05,1.4395910739040119e-06,-3.124960130662657e-05,2.7705562388291582e-05
-5.125312236486934e-05,-9.17420766199939e-06,-3.257190837757662e-05,2.716678864089772e-05
-4.7516314225504175e-05,-5.857286851096433e-06,-3.207395275239833e-05,2.594193210825324e-05
-4.1342191252624616e-05,6.379575097525958e-06,-2.8285241569392383e-05,2.330053575860802e-05
-3.779339022003114e-05,9.469763426750433e-06,-2.4946630219346844e-05,1.9416243958403356e-05
-3.810057751252316e-05,-6.425415449484717e-06,-2.6429084755363874e-05,1.791541581042111e-05
-4.145876664551906e-05,-1.5620458725607023e-05,-3.057385765714571e-05,1.9054963559028693e-05
-4.576994615490548e-05,9.153077371593099e-06,-3.3842017728602514e-05,2.2226160581340082e-05
-4.908835035166703e-05,4.7634988732170314e-05,-3.592175562516786e-05,2.8097667382098734e-05
-5.1937324315076694e-05,6.993023998802528e-05,-3.6182438634568825e-05,3.1256353395292535e-05
-5.322638025972992e-05,7.106785051291808e-05,-3.542072590789758e-05,2.7082869564765133e-05
-5.382948074839078e-05,6.18554258835502e-05,-3.3326108678011224e-05,2.0501140170381404e-05
-5.392368257162161e-05,5.264949140837416e-05,-3.128452954115346e-05,1.608975617273245e-05
-5.410518133430742e-05,4.7488105337833986e-05,-3.1738625693833455e-05,1.7810603821999393e-05
-5.655322820530273e-05,3.779984763241373e-05,-3.36799057549797e-05,2.0672365280915983e-05
-5.999283894198015e-05,2.7303420210955665e-05,-3.58848410542123e-05,1.758859616529662e-05
-6.0858048527734354e-05,2.6534093194641173e-05,-3.6141420423518866e-05,1.5428884580614977e-05
-5.912582128075883e-05,3.239092984586023e-05,-3.259107324993238e-05,1.60422787303105e-05
-6.133833812782541e-05,3.944344643969089e-05,-3.201855724910274e-05,1.5651310604880564e-05
-6.399713311111555e-05,3.963333074352704e-05,-3.48482935805805e-05,1.4902762814017478e-05
-6.294428021647036e-05,3.712396210175939e-05,-3.363046926097013e-05,1.9093839000561275e-05
-6.257250788621604e-05,3.254877810832113e-05,-3.243269748054445e-05,2.1754878616775386e-05
-6.501823372673243e-05,2.6583242288324982e-05,-3.630992796388455e-05,1.8605836885399185e-05
-6.75068367854692e-05,2.2296642782748677e-05,-4.105067637283355e-05,1.4237306459108368e-05
-6.844585004728287e-05,2.1823314455104992e-05,-4.126026760786772e-05,1.3201491128711496e-05
-6.336608930723742e-05,2.3172084183897823e-05,-3.848484266200103e-05,1.4987070244387724e-05
-5.3918862249702215e-05,2.4233841031673364e-05,-3.4556080208858475e-05,1.6893369320314378e-05
-4.2961157305398956e-05,2.6136322048841976e-05,-2.8951149943168275e-05,2.0451754608075134e-05
-3.528949309838936e-05,2.954395313281566e-05,-2.321655847481452e-05,2.355095602979418e-05
-3.163969813613221e-05,3.3481079299235716e-05,-1.8705604816204868e-05,2.4111590391839854e-05
-2.610302180983126e-05,3.494374323054217e-05,-1.5551580872852355e-05,2.357231824134942e-05
-1.8390615878161043e-05,3.507946166791953e-05,-1.3707108337257523e-05,2.503298492229078e-05
-1.6156811398104765e-05,3.6244458897272125e-05,-1.5432162399520166e-05,2.6874333343585022e-05
-2.0824612875003368e-05,3.8041955122025684e-05,-2.1390789697761647e-05,2.814912295434624e-05
-2.5416828066227026e-05,3.667943747132085e-05,-2.7801586838904768e-05,2.792304258036893e-05
-2.8196762286825106e-05,2.9092827389831655e-05,-2.795328327920288e-05,2.6944351702695712e-05
-2.991796463902574e-05,1.7843845853349194e-05,-2.461294934619218e-05,2.867978037102148e-05
-3.196641046088189e-05,1.0139757250726689e-05,-2.4620070689707063e-05,3.171021307935007e-05
-3.2878997444640845e-05,8.612028068455402e-06,-2.3502503609051928e-05,3.142260902677663e-05
-3.416762046981603e-05,1.1627128515101504e-05,-2.0063353076693602e-05,3.135619772365317e-05
-3.6309931601863354e-05,1.0139035111933481e-05,-1.9014714780496433e-05,3.086555443587713e-05
-3.9597496652277187e-05,-2.7808746381197125e-06,-2.2275295123108663e-05,2.9173530492698774e-05
-4.756603084388189e-05,-1.8094431652571075e-05,-2.66192637354834e-05,2.7950933144893497e-05
-5.782359585282393e-05,-1.3555395526054781e-05,-2.403761936875526e-05,2.193473483202979e-05
-6.284887786023319e-05,1.0129860129381996e-05,-1.7638742065173574e-05,1.7080265024560504e-05
-6.369257607730106e-05,3.6003420973429456e-05,-1.543434518680442e-05,1.697346851869952e-05
-6.152311834739521e-05,5.507499008672312e-05,-1.9548358977772295e-05,1.6899424736038782e-05
-5.771940777776763e-05,6.899206346133724e-05,-2.4809929527691565e-05,1.6123194654937834e-05
-5.547200271394104e-05,7.87637909525074e-05,-2.5302950234618038e-05,1.6552916349610314e-05
-5.703533679479733e-05,7.813603588147089e-05,-2.487153142283205e-05,1.8162701962864958e-05
-5.700001202058047e-05,6.918758299434558e-05,-2.3167118342826143e-05,2.1136374925845303e-05
-5.531199349206872e-05,6.179049523780122e-05,-2.2658254238194786e-05,2.3785050871083513e-05
-5.796182085759938e-05,5.6609485909575596e-05,-2.495212720532436e-05,2.2979005734669045e-05
-6.571828998858109e-05,4.894806625088677e-05,-2.6828487534658052e-05,2.082652281387709e-05
-7.336420094361529e-05,4.285256363800727e-05,-2.7584401323110797e-05,1.7513588318252005e-05
-7.837096927687526e-05,3.948991434299387e-05,-2.8079706680728123e-05,1.447459089831682e-05
-8.363248343812302e-05,3.694727274705656e-05,-2.7744634280679747e-05,1.5358173186541535e-05
-8.828315185382962e-05,3.604549783631228e-05,-2.7753221729653887e-05,1.9177006834070198e-05
-8.853010513121262e-05,3.453156023169868e-05,-2.7392954507377e-05,2.0767402020283043e-05
-8.202008757507429e-05,2.685343861230649e-05,-2.586290611361619e-05,1.919401256600395e-05
-7.394979184027761e-05,1.855391019489616e-05,-2.5992931114160456e-05,1.746643101796508e-05
-6.763414421584457e-05,1.8164746506954543e-05,-2.6339246687712148e-05,1.813370909076184e-05
-6.382735591614619e-05,2.6968007659888826e-05,-2.5691615519463085e-05,1.9529648852767423e-05
-6.169463449623436e-05,4.828764940612018e-05,-2.4402883354923688e-05,2.0975681763957255e-05
-6.155589653644711e-05,7.845294749131426e-05,-2.5290584744652733e-05,2.1906722395215183e-05
-5.5865551985334605e-05,9.968304220819846e-05,-2.520402085792739e-05,2.1397676391643472e-05
-4.7511759476037696e-05,0.00010470119741512462,-2.2664849893772043e-05,2.5301043933723122e-05
-4.515703039942309e-05,9.726574353408068e-05,-1.7171116269310005e-05,3.0335715564433485e-05
-4.7062272642506287e-05,9.113203850574791e-05,-1.4183028724801261e-05,3.1283012503990903e-05
-4.80697926832363e-05,8.91790768946521e-05,-1.6839354429976083e-05,2.7952321033808403e-05
-4.4030530261807144e-05,7.91370912338607e-05,-1.9215629436075687e-05,2.224755553470459e-05
-4.021521453978494e-05,5.683585550286807e-05,-1.999936102947686e-05,2.234996463812422e-05
-3.62846149073448e-05,3.0557486752513796e-05,-2.1995469069224782e-05,2.7297315682517365e-05
-3.7323410651879385e-05,6.0892111832799856e-06,-2.7541052986634895e-05,3.083553383476101e-05
-4.4072508899262175e-05,-1.2847943253291305e-05,-3.228024797863327e-05,2.948874134744983e-05
-4.353958138381131e-05,-1.3607408618554473e-05,-3.466478665359318e-05,2.4296581614180468e-05
-3.466280395514332e-05,9.137088454735931e-07,-3.656751869129948e-05,2.3294447601074353e-05
-3.0267163310782053e-05,1.4661675777460914e-05,-4.0605686081107706e-05,2.5305194867542014e-05
-3.680106601677835e-05,1.4828070561634377e-05,-4.16242764913477e-05,2.774409222183749e-05
-4.459538831724785e-05,1.0693590411392506e-05,-3.769434624700807e-05,2.8566788387252018e-05
-4.159168747719377e-05,2.2969366909819655e-05,-3.1934156140778214e-05,2.802417475322727e-05
-3.1441439205082133e-05,5.234383570495993e-05,-2.7417094315751456e-05,2.789559766824823e-05
-2.7098758437205106e-05,7.562365499325097e-05,-2.5402730898349546e-05,2.8082031349185854e-05
-2.8578504498000257e-05,8.16234532976523e-05,-2.4005979867069982e-05,2.8672477128566243e-05
-2.6151989004574716e-05,8.047586015891284e-05,-2.2397834982257336e-05,2.776981273200363e-05
-1.9833089027088135e-05,7.179100794019178e-05,-1.9178523871232755e-05,2.512998071324546e-05
-1.8548342268331908e-05,4.751950109493919e-05,-1.5841224012547173e-05,2.2846234060125425e-05
-2.1988982553011738e-05,1.4704030036227778e-05,-1.479564070905326e-05,2.0313438653829508e-05
-2.4433451471850276e-05,-1.2776110452250578e-05,-1.4691480828332715e-05,1.662448630668223e-05
-2.6747062292997725e-05,-1.9798042558250017e-05,-1.5107904800970573e-05,1.6620400856481865e-05
-2.964560735563282e-05,-7.917261427792255e-06,-1.7930729882209562e-05,1.8565260688774288e-05
-2.8986716642975807e-05,-1.0089369425259065e-05,-1.7833164747571573e-05,1.9726077880477533e-05
-3.122931593679823e-05,-2.645917447807733e-05,-1.645877091505099e-05,1.9999701180495322e-05
-3.8386249798350036e-05,-3.031940468645189e-05,-1.644201074668672e-05,2.151548324036412e-05
-4.60160372313112e-05,-1.6863794371602125e-05,-1.6453854186693206e-05,2.207597208325751e-05
-5.025438076700084e-05,-2.560047050792491e-06,-2.087141911033541e-05,2.0503059204202145e-05
-5.2964438509661704e-05,-3.5356297303223982e-06,-2.5082419597310945e-05,1.9700792108778842e-05
-5.3075189498486e-05,-1.509011235611979e-05,-2.5786912374314852e-05,1.9101160432910547e-05
-5.4126561735756695e-05,-1.810409412428271e-05,-2.6643074306775816e-05,1.9192350009689108e-05
-6.55978437862359e-05,7.4601039159460925e-06,-2.684920582396444e-05,2.236983709735796e-05
-7.836525037419051e-05,5.164341564523056e-05,-2.7342053726897575e-05,3.090325844823383e-05
-8.37024999782443e-05,9.291813330492005e-05,-2.601878259156365e-05,3.636883047875017e-05
-8.02632057457231e-05,0.00012132939446019009,-2.4082668460323475e-05,3.2301082683261484e-05
-7.354978151852265e-05,0.00013248014147393405,-2.1561998437391594e-05,2.704332655412145e-05
-6.92458706907928e-05,0.00012807990424335003,-2.060773294942919e-05,2.8104468583478592e-05
-6.688661233056337e-05,0.00012470516958273947,-2.1392421331256628e-05,3.144082802464254e-05
-6.27480330877006e-05,0.00013028367538936436,-2.447126644256059e-05,3.274523260188289e-05
-6.172358553158119e-05,0.00011949729378102347,-3.089176971116103e-05,3.167192335240543e-05
-6.549152749357745e-05,7.3289978899993e-05,-3.5748664231505245e-05,2.9720531529164873e-05
-7.221082341857255e-05,7.955681212479249e-06,-3.479828228591941e-05,2.665814281499479e-05
-7.642921264050528e-05,-3.858302807202563e-05,-2.993549787788652e-05,2.2770880605094135e-05
-7.415844447677955e-05,-4.41053525719326e-05,-2.9494010959751904e-05,2.3180842617875896e-05
-6.710166053380817e-05,-2.3036927814246155e-05,-3.05472276522778e-05,2.760337338258978e-05
-5.528373731067404e-05,-7.370999355771346e-06,-2.8323804144747555e-05,2.9062915928079747e-05
-4.104493564227596e-05,-4.929021088173613e-06,-2.654062700457871e-05,2.9223961973912083e-05
-2.993283669638913e-05,-6.017180112394271e-06,-2.757104994088877e-05,3.10583709506318e-05
-2.749839950411115e-05,-1.1602178346947767e-05,-2.9100856409058906e-05,2.9997527235536836e-05
-3.3197902666870505e-05,-2.5751793145900592e-05,-3.171947901137173e-05,2.60629767581122e-05
-4.00434473704081e-05,-4.164355414104648e-05,-3.308804298285395e-05,2.02772171178367e-05
-4.305913171265274e-05,-4.520630318438634e-05,-3.0282073566922918e-05,1.4766614185646176e-05
-4.289796925149858e-05,-2.8891161491628736e-05,-2.7667865651892498e-05,1.35311920530512e-05
-4.4414591684471816e-05,-7.130047379177995e-07,-2.7731393856811337e-05,1.7976211893255822e-05
-4.961473314324394e-05,2.1679632482118905e-05,-2.487769233994186e-05,2.302963002875913e-05
-5.0978007493540645e-05,3.0635594157502055e-05,-2.162985038012266e-05,2.503842733858619e-05
-5.022457116865553e-05,2.7906538889510557e-05,-2.1000096239731647e-05,2.262425550725311e-05
-5.3872889111517e-05,2.0530924302875064e-05,-2.3707194486632943e-05,1.808060915209353e-05
-6.0326339735183865e-05,1.9955392417614348e-05,-2.6809986593434587e-05,1.653114850341808e-05
-6.160712655400857e-05,2.716463313845452e-05,-2.734421104833018e-05,1.7169712009490468e-05
-6.0073118220316246e-05,3.595392990973778e-05,-2.5661089239292778e-05,1.81189661816461e-05
-5.858337681274861e-05,4.2147847125306726e-05,-2.433375448163133e-05,1.7886788555188105e-05
-5.573259113589302e-05,4.885606904281303e-05,-2.309238516318146e-05,1.7965967344935052e-05
-5.450447497423738e-05,5.508300455403514e-05,-2.0390776626300067e-05,2.2162452296470292e-05
-5.802976374980062e-05,5.8746412832988426e-05,-1.9018993043573573e-05,2.8163824026705697e-05
-6.062459942768328e-05,5.53721038158983e-05,-1.9696499293786474e-05,3.088101584580727e-05
-5.890530155738816e-05,3.9490409108111635e-05,-2.192152533098124e-05,2.955203308374621e-05
-5.602068631560542e-05,2.0399213099153712e-05,-2.557588777563069e-05,2.55199774983339e-05
-5.219544982537627e-05,8.426664862781763e-06,-3.071022729272954e-05,2.0457509890547954e-05
-4.42873097199481e-05,4.777004505740479e-06,-3.2917447242653e-05,1.784876803867519e-05
-3.153385114273988e-05,6.9884777076367754e-06,-3.138377724098973e-05,2.0415031031006947e-05
-1.8554137568571605e-05,1.4394229765457567e-05,-2.7389878596295603e-05,2.508499164832756e-05
-7.745401489955839e-06,3.463674511294812e-05,-2.37320527958218e-05,2.5610333977965638e-05
-3.436765609876602e-06,7.61046539992094e-05,-2.1988786102156155e-05,2.1915069737588055e-05
-7.80641221354017e-06,0.00011637085117399693,-2.2742307919543236e-05,1.956456071638968e-05
-1.4729686881764792e-05,0.00012418963888194412,-2.4246426619356498e-05,2.0840399884036742e-05
-1.6121688531711698e-05,0.00010440546611789614,-2.4555492927902378e-05,2.236505133623723e-05
-1.3781796042167116e-05,8.319492917507887e-05,-2.0549465261865407e-05,2.1127425497979857e-05
-1.733299723127857e-05,6.926429341547191e-05,-1.6003821656340733e-05,2.0038540242239833e-05
-2.660563404788263e-05,7.09348387317732e-05,-1.7455311535741203e-05,2.2105332391220145e-05
-3.6880664993077517e-05,0.00010768203355837613,-2.468214006512426e-05,2.3965392756508663e-05
-4.601435284712352e-05,0.0001400139881297946,-3.2301555620506406e-05,2.2347048798110336e-05
-5.6205361033789814e-05,0.00011049988097511232,-3.340352850500494e-05,2.0719848180306144e-05
-6.91074674250558e-05,3.638532871264033e-05,-3.408519478398375e-05,1.9891134797944687e-05
-7.764226756989956e-05,-3.530486355884932e-05,-3.753574856091291e-05,1.7599981219973415e-05
-8.157534466590732e-05,-6.948665395611897e-05,-3.577830284484662e-05,1.4907763215887826e-05
-7.508330600103363e-05,-6.679815851384774e-05,-2.9769593311357312e-05,1.7136098904302344e-05
-6.34211246506311e-05,-4.6312172344187275e-05,-2.6023515601991676e-05,2.296306047355756e-05
-5.6405504437861964e-05,-2.365713589824736e-05,-2.5352293960168026e-05,2.69374195340788e-05
-5.1972612709505484e-05,-1.1852004718093667e-05,-2.8038919481332414e-05,2.786735240078997e-05
-4.848776006838307e-05,-1.1068517778767273e-05,-3.1619063520338386e-05,2.7851068807649426e-05
-5.004584090784192e-05,-9.55393898038892e-06,-3.168414332321845e-05,2.7880945708602667e-05
-5.6791370298014954e-05,-1.1994211490673479e-06,-2.766333091130946e-05,2.720217889873311e-05
-6.237255729502067e-05,9.439903806196526e-06,-2.3601915017934516e-05,2.4754786863923073e-05
-6.596856110263616e-05,1.89909460459603e-05,-2.4721079171285965e-05,2.1938258214504458e-05
-6.797113019274548e-05,2.751938154688105e-05,-2.9551698389695957e-05,2.2068490579840727e-05
-6.493493128800765e-05,3.0393148335861042e-05,-3.252385795349255e-05,2.5867751901387237e-05
-5.765688911196776e-05,1.7835771359386854e-05,-3.2386356906499714e-05,3.2289746741298586e-05
-5.062269337940961e-05,-8.557666660635732e-06,-3.227121851523407e-05,3.646072946139611e-05
-4.4732347305398434e-05,-3.611853389884345e-05,-3.3674707083264366e-05,3.60255035047885e-05
-4.4629246986005455e-05,-4.858359898207709e-05,-3.413171725696884e-05,3.212003139196895e-05
-4.8481208068551496e-05,-3.8390866393456236e-05,-3.0075587346800603e-05,2.512557512091007e-05
-5.192856042413041e-05,-4.930213890474988e-06,-2.5571236619725823e-05,1.9889590475941077e-05
-4.9323716666549444e-05,4.097036435268819e-05,-2.411723107798025e-05,1.7059206584235653e-05
-4.251524296705611e-05,8.413917385041714e-05,-2.4860752091626637e-05,1.3811654753226321e-05
-3.840176577796228e-05,0.00011428105790400878,-2.747997859842144e-05,1.3992055755807087e-05
-3.660739821498282e-05,0.000125866339658387,-2.8507407478173263e-05,1.7630669390200637e-05
-3.771584670175798e-05,0.00011901487596333027,-2.6256366254528984e-05,2.658173798408825e-05
-4.033967707073316e-05,0.00010134105832548812,-2.246634721814189e-05,3.469801595201716e-05
-3.889020445058122e-05,7.91476559243165e-05,-2.095788840961177e-05,3.3567157515790313e-05
-3.5882549127563834e-05,5.096340100863017e-05,-2.207178113167174e-05,2.868146293621976e-05
-3.7328478356357664e-05,2.8602074962691404e-05,-2.2411357349483296e-05,2.600314110168256e-05
-3.717550862347707e-05,2.2729054762749e-05,-2.1763942640973255e-05,2.3812548533896916e-05
-3.2092782930703834e-05,2.641622631927021e-05,-2.03561667149188e-05,2.281344677612651e-05
-2.8115484383306466e-05,3.827094769803807e-05,-1.8398937754682265e-05,2.3557382519356906e-05
-3.041208765353076e-05,5.146546754986048e-05,-1.8026767065748572e-05,2.4007511456147768e-05
-3.721335087902844e-05,5.754001540481113e-05,-1.981237619474996e-05,2.4405857402598485e-05
-4.557577267405577e-05,5.712068741559051e-05,-2.5641942556831054e-05,2.5379651560797356e-05
-5.3101986850379035e-05,5.5334709031740203e-05,-3.0101731681497768e-05,2.6083185730385594e-05
-5.740252890973352e-05,5.443146073957905e-05,-3.0086719561950304e-05,2.4826944354572333e-05
-6.187773396959528e-05,5.2220300858607516e-05,-2.9635002647410147e-05,2.2989295757724904e-05
-6.718684016959742e-05,4.4281885493546724e-05,-3.0919421988073736e-05,2.096129537676461e-05
-7.017045572865754e-05,3.275721974205226e-05,-3.069978265557438e-05,1.9862975022988394e-05
-6.770600157324225e-05,2.7990879971184768e-05,-3.015621769009158e-05,2.0225950720487162e-05
-6.529990787385032e-05,2.9255128538352437e-05,-3.275213384767994e-05,2.1141060642548837e-05
-6.66766645736061e-05,2.5303201255155727e-05,-3.369715705048293e-05,2.0391946236486547e-05
-6.734488852089271e-05,9.559390491631348e-06,-3.0155946660670452e-05,1.758255712047685e-05
-6.354739161906764e-05,-5.0351959544059355e-06,-2.723220495681744e-05,1.3539160136133432e-05
-6.017396299284883e-05,-7.150756118790014e-06,-2.847530231520068e-05,9.834358934313059e-06
-5.969529229332693e-05,-3.6793244362343103e-06,-2.8673634005826898e-05,9.568437235429883e-06
-5.603585668723099e-05,2.507002363927313e-06,-2.7213933208258823e-05,1.3583985492005013e-05
-5.216517092776485e-05,1.3535279322240967e-05,-2.6397407054901123e-05,1.9088278349954635e-05
-5.019872332923114e-05,2.429994856356643e-05,-2.5592829842935316e-05,2.267339004902169e-05
-4.8941154091153294e-05,2.873189077945426e-05,-2.4506218323949724e-05,2.2028818420949392e-05
-5.451613469631411e-05,2.8947149985469878e-05,-2.2497779355035163e-05,2.2499996703118086e-05
-6.222464435268193e-05,3.245839252485894e-05,-1.9377132048248313e-05,2.559663334977813e-05
-6.270169978961349e-05,3.2879761420190334e-05,-1.7177142581203952e-05,2.5419110897928476e-05
-5.6888515246100724e-05,2.8227681468706578e-05,-1.7392983863828704e-05,2.4002853024285287e-05
-5.1711660489672795e-05,2.4954562832135707e-05,-2.094973206112627e-05,2.481509181961883e-05
-4.523766983766109e-05,2.638305159052834e-05,-2.6418476409162395e-05,2.8097509130020626e-05
-4.085361797478981e-05,3.0071782020968385e-05,-2.9869484933442436e-05,2.9849537895643152e-05
-4.161331889918074e-05,3.491438474156894e-05,-2.6455079932929948e-05,2.8481281333370134e-05
-4.215905937599018e-05,4.060699211549945e-05,-1.9865259673679247e-05,2.8457658117986284e-05
-4.500470095081255e-05,4.266997711965814e-05,-1.5634326700819656e-05,3.0076598704908974e-05
-4.2921990825561807e-05,3.6823912523686886e-05,-1.5526151400990784e-05,2.9995027944096364e-05
-3.979950270149857e-05,2.416643656033557e-05,-1.698089181445539e-05,2.847779614967294e-05
-3.984243448940106e-05,9.621096069167834e-06,-2.034177305176854e-05,2.660270911292173e-05
-4.279806307749823e-05,-1.847389285103418e-06,-2.513322397135198e-05,2.3967922970768996e-05
-4.2564548493828624e-05,-2.9877835459046764e-06,-2.7324682378093712e-05,2.1963984181638807e-05
-3.789082620642148e-05,4.320217158237938e-06,-2.7262018193141557e-05,2.2430464014178142e-05
-3.55847914761398e-05,1.4846481462882366e-05,-2.8525875677587464e-05,2.452548324072268e-05
-3.8454800233012065e-05,2.7276175387669355e-05,-3.1568590202368796e-05,2.3749809770379215e-05
-4.4076972699258476e-05,3.9539820136269554e-05,-3.256060881540179e-05,2.1341587853385136e-05
-4.744473335449584e-05,4.5707813114859164e-05,-3.2145806471817195e-05,2.266348928969819e-05
-4.826671283808537e-05,4.865889422944747e-05,-3.0162022085278295e-05,2.679003227967769e-05
-4.6810306230327114e-05,5.2072671678615734e-05,-2.7393327400204726e-05,2.8145987016614527e-05
-4.329147850512527e-05,5.5278040235862136e-05,-2.7280006179353222e-05,2.482828131178394e-05
-4.017180617665872e-05,6.153100548544899e-05,-2.8652126275119372e-05,2.2889182218932547e-05
-3.818858021986671e-05,7.048949191812426e-05,-2.6955747671308927e-05,2.3525355572928675e-05
-3.690357334562577e-05,7.41526746423915e-05,-2.3072720068739727e-05,2.142284756700974e-05
-4.350067683844827e-05,7.515891775256023e-05,-2.1058078345959075e-05,1.966618401638698e-05
-5.246471846476197e-05,8.302547212224454e-05,-2.266085721203126e-05,1.9924935259041376e-05
-5.989342025713995e-05,8.939039253164083e-05,-2.4629514882690273e-05,2.1642630599671975e-05
-6.360510451486334e-05,8.165384497260675e-05,-2.388300526945386e-05,2.4628581741126254e-05
-5.988755219732411e-05,5.8106077631236985e-05,-2.2509157133754343e-05,2.3300337488763034e-05
-5.7353874581167474e-05,2.7600350222201087e-05,-2.5273251594626345e-05,1.872867505881004e-05
-5.928041719016619e-05,4.1940347728086635e-06,-2.7121786843053997e-05,1.6003021301003173e-05
-5.79421321162954e-05,2.545722736613243e-06,-2.2819318473921157e-05,1.8119379092240706e-05
-5.5852731748018414e-05,2.0272027541068383e-05,-1.648141369514633e-05,1.9477545720292255e-05
-5.7453496992820874e-05,3.490164817776531e-05,-1.3727834812016226e-05,1.9370898371562362e-05
-5.9235728258499876e-05,3.6290479329181835e-05,-1.5962730685714632e-05,1.9944134692195803e-05
-5.5742511904099956e-05,3.373701838427223e-05,-1.897886977531016e-05,2.315553319931496e-05
-4.901730062556453e-05,3.60179110430181e-05,-1.8754079064819962e-05,2.910132570832502e-05
-4.613680357579142e-05,3.87918516935315e-05,-1.8581546100904234e-05,3.213246600353159e-05
-4.9931266403291374e-05,3.6088582419324666e-05,-2.0382594811962917e-05,2.9358101528487168e-05
-5.5259592045331374e-05,2.8752914658980444e-05,-2.1175585061428137e-05,2.3226513803820126e-05
-5.666140714311041e-05,1.8917606212198734e-05,-1.9963747035944834e-05,2.2220317987375893e-05
-5.4710119002265856e-05,1.0094158824358601e-05,-1.8482058294466697e-05,2.805215808621142e-05
-4.978803190169856e-05,5.743058864027262e-06,-1.9301804059068672e-05,3.512593684718013e-05
-4.318611172493547e-05,3.210979230061639e-06,-2.0841844161623158e-05,3.632217340054922e-05
-3.837277472484857e-05,1.3544628245654167e-06,-1.9766703189816326e-05,3.311645195935853e-05
-3.78572367480956e-05,5.518486887012841e-06,-1.7218639186467044e-05,2.8426582503016107e-05
-3.974253559135832e-05,9.972596672014333e-06,-1.7740356270223856e-05,2.644319465616718e-05
-4.002025525551289e-05,8.506093763571698e-06,-2.1044914319645613e-05,2.7214360670768656e-05
-3.90170025639236e-05,8.827733836369589e-06,-2.4099330403259955e-05,2.7699965357896872e-05
-3.7864137993892655e-05,1.7627829947741702e-05,-2.6333966161473654e-05,2.4275572286569513e-05
-3.4884978958871216e-05,2.8905569706694223e-05,-2.7109028451377526e-05,2.110378773068078e-05
-3.2127154554473236e-05,3.7267109291860834e-05,-2.8201999157317914e-05,2.460886025801301e-05
-3.571307024685666e-05,4.165362406638451e-05,-2.8812772143282928e-05,2.935661905212328e-05
-4.0648494177730754e-05,3.442359229666181e-05,-3.162294888170436e-05,2.8373446184559725e-05
-4.23201490775682e-05,2.155041875084862e-05,-3.878460483974777e-05,2.531566860852763e-05
-4.792696563526988e-05,1.6991732991300523e-05,-3.802491846727207e-05,2.4021119315875694e-05
-5.050571417086758e-05,3.185869718436152e-05,-3.392776125110686e-05,2.222987859568093e-05
-5.0118564104195684e-05,6.410277273971587e-05,-3.418288906686939e-05,2.4187544113374315e-05
-5.2751220209756866e-05,8.824883116176352e-05,-3.621808355092071e-05,2.5776869733817875e-05
-5.530803537112661e-05,9.211016731569543e-05,-3.6168730730423704e-05,2.816366577462759e-05
-5.364393655327149e-05,8.100477862171829e-05,-3.0980456358520314e-05,2.7886637326446362e-05
-5.3982585086487234e-05,5.9839199820999056e-05,-2.5339058993267827e-05,2.6490977688808925e-05
-5.776590478490107e-05,3.044808909180574e-05,-2.294043224537745e-05,2.9901719244662672e-05
-5.45656330359634e-05,-6.079551440052455e-06,-2.3170756321633235e-05,3.515558273647912e-05
-4.519040521699935e-05,-3.690549419843592e-05,-2.6238374630338512e-05,3.4761676943162456e-05
-4.052682561450638e-05,-4.725891267298721e-05,-2.9484417609637603e-05,2.94196761387866e-05
-4.2411149479448795e-05,-3.965596988564357e-05,-2.8385993573465385e-05,2.609635157568846e-05
-4.365942731965333e-05,-2.2626547433901578e-05,-2.6204948881058954e-05,2.3536440494353883e-05
-4.6307130105560645e-05,2.192624606323079e-06,-2.8281227059778757e-05,1.9025012079509906e-05
-5.5046348279574886e-05,3.34556279995013e-05,-3.265006307628937e-05,1.415587576047983e-05
-6.361849955283105e-05,6.195185414981097e-05,-3.491236930130981e-05,1.4313037354440894e-05
-6.37875564279966e-05,8.003677794476971e-05,-3.674018444144167e-05,1.6250211047008634e-05
-5.9584053815342486e-05,8.683331543579698e-05,-3.8484082324430346e-05,1.692606929282192e-05
-5.6097618653438985e-05,8.112091018119827e-05,-3.6071072827326134e-05,1.810597677831538e-05
-5.71332493564114e-05,6.720937381032854e-05,-3.149524854961783e-05,2.0568228137562983e-05
-6.074792690924369e-05,4.648355024983175e-05,-2.908532951551024e-05,1.9157187125529163e-05
-6.186741666169837e-05,2.4844070139806718e-05,-2.8721278795273975e-05,1.6098383639473468e-05
-5.998658889438957e-05,2.804536052281037e-05,-2.918868813139852e-05,1.6430672985734418e-05
-6.299194501480088e-05,5.39064931217581e-05,-2.7355305064702407e-05,2.0515411961241625e-05
-6.875621329527348e-05,6.248849967960268e-05,-2.704587677726522e-05,2.6814781449502334e-05
-6.63916434859857e-05,4.727799750980921e-05,-2.732066423050128e-05,3.17200283461716e-05
-6.061033855075948e-05,3.253493196098134e-05,-2.7343648980604485e-05,3.109047975158319e-05
-5.7690540415933356e-05,1.59210594574688e-05,-2.8682421543635428e-05,2.847421092155855e-05
-5.9126225096406415e-05,-3.574313268472906e-06,-3.083575938944705e-05,2.4754763217060827e-05
-5.9245321608614177e-05,-6.920608484506374e-06,-3.1071132980287075e-05,2.1293219106155448e-05
-5.94005650782492e-05,9.681402843852993e-06,-2.6718396838987246e-05,1.7958444004761986e-05
-6.399363337550312e-05,2.8799318897654302e-05,-2.186206984333694e-05,1.552797584736254e-05
-6.545653741341084e-05,3.8447418774012476e-05,-1.7959617252927274e-05,1.5595343938912265e-05
-6.178705370984972e-05,4.145752973272465e-05,-1.8686621842789464e-05,1.7064978237613104e-05
-5.5864627938717604e-05,4.519587309914641e-05,-2.4063620003289543e-05,1.8079925212077796e-05
-4.839215034735389e-05,5.497500751516782e-05,-2.5890767574310303e-05,1.8515293049858883e-05
-4.0390230424236506e-05,6.849700002931058e-05,-2.027479058597237e-05,2.1520851078093983e-05
-3.3643362257862464e-05,8.084297587629408e-05,-1.387406427966198e-05,2.399161530775018e-05
-2.7546017008717172e-05,9.164448420051485e-05,-1.1552980140550062e-05,2.5615740014472976e-05
-2.2451191398431547e-05,0.00010068969277199358,-1.3270518138597254e-05,2.8718350222334266e-05
-1.953957871592138e-05,9.74060021690093e-05,-1.7323971405858174e-05,3.401228605071083e-05
-2.0786999812116846e-05,7.434636063408107e-05,-2.1448437109938823e-05,3.5450950235826895e-05
-2.5229150196537375e-05,3.69128210877534e-05,-2.366865737712942e-05,2.9778469979646616e-05
-2.969928755192086e-05,-8.89126795300399e-07,-2.28940316446824e-05,2.0564975784509443e-05
-3.2625739549985155e-05,-2.7450409106677398e-05,-2.1449002815643325e-05,1.606901059858501e-05
-3.576470771804452e-05,-4.703740341938101e-05,-2.479893919371534e-05,1.7972990463022143e-05
-3.8937087083468214e-05,-6.805756129324436e-05,-3.3678112231427804e-05,2.0590221538441256e-05
-3.7529007386183366e-05,-7.776517304591835e-05,-3.898407885571942e-05,2.30251516768476e-05
-3.34563956130296e-05,-6.462181772803888e-05,-3.282869147369638e-05,2.673916969797574e-05
-3.5242399462731555e-05,-4.133943730266765e-05,-2.100074925692752e-05,3.0359491574927233e-05
-4.336221900302917e-05,-2.3468228391720913e-05,-1.6289799532387406e-05,3.257337448303588e-05
-5.081691051600501e-05,-7.306564384634839e-06,-1.97390399989672e-05,2.8255639335839078e-05
-5.403688192018308e-05,1.7220943846041337e-05,-2.518829751352314e-05,2.3583917936775833e-05
-5.715167571906932e-05,5.312114808475599e-05,-2.4867784304660745e-05,2.3577009415021166e-05
-6.621483771596104e-05,9.584854706190526e-05,-2.0390360077726655e-05,2.4196911908802576e-05
-7.944548269733787e-05,0.00012397907266858965,-2.198358197347261e-05,2.29452289204346e-05
-8.789571438683197e-05,0.00011951508349739015,-2.4276932890643366e-05,1.738906212267466e-05
-8.40768771013245e-05,9.693462197901681e-05,-2.639672311488539e-05,1.111297751776874e-05
-7.246830500662327e-05,7.863243808969855e-05,-3.0162376788211986e-05,7.107979854481528e-06
-6.474566907854751e-05,6.855255196569487e-05,-3.217700941604562e-05,9.879319804895204e-06
-6.460516306106001e-05,6.32723604212515e-05,-3.282496254541911e-05,1.5536528735538013e-05
-6.60817968309857e-05,6.30968133918941e-05,-3.13690397888422e-05,1.9622346371761523e-05
-6.951772957108915e-05,7.283850573003292e-05,-3.263174221501686e-05,2.189399856433738e-05
-7.094067404977977e-05,8.183697354979813e-05,-3.6514091334538534e-05,2.0858557036262937e-05
-6.818425026722252e-05,7.899671618361026e-05,-3.69627341569867e-05,1.8561226170277223e-05
-5.984719973639585e-05,6.713052425766364e-05,-3.273083348176442e-05,1.8745216948445886e-05
-5.080012488178909e-05,5.04575546074193e-05,-2.9213482775958255e-05,2.152332672267221e-05
-4.807745790458284e-05,2.653203955560457e-05,-2.8282340281293727e-05,2.4926142941694707e-05
-5.0812701374525204e-05,1.5136919273572857e-06,-2.6410090868012048e-05,2.7672809665091336e-05
-5.342363874660805e-05,-9.50312187342206e-06,-2.3638076527277008e-05,2.8356482289382257e-05
-5.159558349987492e-05,-5.1508336582628544e-06,-2.590638723631855e-05,2.5955498131224886e-05
-5.1626699132611975e-05,-3.486448804324027e-06,-3.284218837507069e-05,2.1096213458804414e-05
-5.2786697779083624e-05,-1.8094036931870505e-05,-3.730714524863288e-05,1.8088905562763102e-05
-5.0590391765581444e-05,-2.3993428840185516e-05,-3.696707426570356e-05,2.0232148017385043e-05
-5.02992479596287e-05,1.4687691873405129e-05,-3.558858225005679e-05,2.3070369934430346e-05
-5.357772170100361e-05,7.519933569710702e-05,-3.3926789910765365e-05,2.4560924430261366e-05
-5.1182843890273944e-05,0.00010757976997410879,-3.091178587055765e-05,2.7093139578937553e-05
-4.1858675103867427e-05,0.00010884920629905537,-2.586585469543934e-05,2.79024061455857e-05
-3.5294688132125884e-05,9.568160749040544e-05,-1.942801827681251e-05,2.9549793907790445e-05
-3.3002335840137675e-05,7.880545308580622e-05,-2.1643732907250524e-05,3.375104643055238e-05
-3.2284759072354063e-05,6.231566658243537e-05,-2.4686682081664912e-05,3.768697933992371e-05
-3.637171539594419e-05,4.046145113534294e-05,-2.675907853699755e-05,3.872458546538837e-05
-4.337234713602811e-05,1.5277411876013502e-05,-3.2336545700673014e-05,3.65108935511671e-05
-5.2802533900830895e-05,-6.849911642348161e-06,-3.55561169271823e-05,3.39403522957582e-05
-5.574018359766342e-05,-3.5291999665787444e-05,-3.5724107874557376e-05,3.022591226908844e-05
-5.126344331074506e-05,-7.429962715832517e-05,-3.163172004860826e-05,2.9745457140961662e-05
-4.907639595330693e-05,-9.602506906958297e-05,-2.7979192964266986e-05,3.382598879397847e-05
-5.077544483356178e-05,-7.89746773079969e-05,-2.676811709534377e-05,3.464144538156688e-05
-5.31887162651401e-05,-4.4042237277608365e-05,-2.9298285880940966e-05,2.9857044864911586e-05
-5.25011564604938e-05,-1.613180575077422e-05,-3.1741892598802224e-05,2.4025786842685193e-05
-4.8608664656057954e-05,-7.547465656898567e-07,-2.889331881306134e-05,2.1366251530707814e-05
-4.4199889089213684e-05,8.917806553654373e-06,-2.1109413864905946e-05,2.0346100427559577e-05
-4.0334831282962114e-05,1.5238479136314709e-05,-1.4827406630502082e-05,1.9272083591204137e-05
-3.592402208596468e-05,1.78073751158081e-05,-1.2343299204076175e-05,1.8728371287579648e-05
-3.232756716897711e-05,1.9881708794855513e-05,-1.1798549166996963e-05,2.0273973859730177e-05
-3.3613850973779336e-05,2.5938517865142785e-05,-1.2456994227250107e-05,2.293428588018287e-05
-4.041885767946951e-05,3.5550459870137274e-05,-1.4015999113325961e-05,2.3496131689171307e-05
-4.5974455133546144e-05,4.129100125283003e-05,-1.3839751773048192e-05,2.1448577172122896e-05
-4.4652850192505866e-05,4.20162505179178e-05,-1.3509817108570132e-05,1.981569039344322e-05
-4.094047471880913e-05,3.811710121226497e-05,-1.6055038940976374e-05,2.0056335415574722e-05
-3.725284477695823e-05,2.963360930152703e-05,-1.7076017684303224e-05,2.1620899133267812e-05
-3.568789907149039e-05,2.7758946089306846e-05,-1.6466467059217393e-05,2.4631348424009047e-05
-3.69134359061718e-05,3.581169949029572e-05,-1.8873244698625058e-05,2.497233435860835e-05
-3.766343434108421e-05,4.5441571273840964e-05,-2.2578273274120875e-05,2.1528638171730563e-05
-3.877857670886442e-05,5.082430652691983e-05,-2.211104401794728e-05,2.175803092541173e-05
-4.1053783206734806e-05,5.000767851015553e-05,-1.9604032786446624e-05,2.0484940250753425e-05
-4.2928397306241095e-05,4.836321750190109e-05,-1.9850829630740918e-05,1.7021809981088154e-05
-4.1035695176105946e-05,4.326280395616777e-05,-2.5466550141572952e-05,1.7028525689966045e-05
-4.1245009924750775e-05,3.704107439261861e-05,-2.7666921596392058e-05,1.7124253645306453e-05
-4.033506047562696e-05,3.469997682259418e-05,-2.6850466383621097e-05,1.8384762370260432e-05
-3.862775338348001e-05,3.466060297796503e-05,-2.5985385946114548e-05,1.8396922314423136e-05
-4.007931056548841e-05,3.451637894613668e-05,-2.226626020274125e-05,1.6717693142709322e-05
-4.3213953176746145e-05,3.6105971958022565e-05,-1.9312732547405176e-05,1.1973827895417344e-05
-4.9248723371420056e-05,3.80397577828262e-05,-2.2944168449612334e-05,8.29162854643073e-06
-5.798644633614458e-05,3.762429696507752e-05,-2.799649882945232e-05,9.527090696792584e-06
-6.152621790533885e-05,3.2019877835409716e-05,-2.9897290005465038e-05,1.4952344827179331e-05
-6.011295045027509e-05,2.9702321626245975e-05,-2.74993999482831e-05,2.096767093462404e-05
-6.000149005558342e-05,3.8342568586813286e-05,-2.3493426851928234e-05,2.298210165463388e-05
-6.226322147995234e-05,4.69235674245283e-05,-2.2197526050149463e-05,2.0301602489780635e-05
-6.596426101168618e-05,4.826161966775544e-05,-2.43383547058329e-05,1.7851458324003033e-05
-6.698376819258556e-05,4.4050957512808964e-05,-2.8739386834786274e-05,2.051548653980717e-05
-6.659446808043867e-05,4.075411561643705e-05,-3.1323426810558885e-05,2.3912154574645683e-05
-6.63548125885427e-05,4.177161099505611e-05,-3.114035280304961e-05,2.3029781004879624e-05
-6.647338159382343e-05,4.626759618986398e-05,-2.7893194783246145e-05,1.9113344023935497e-05
-6.555258005391806e-05,4.647627429221757e-05,-2.432679320918396e-05,1.863748548203148e-05
-6.393814692273736e-05,4.23685742134694e-05,-2.2570897272089496e-05,2.1896063117310405e-05
-6.208447302924469e-05,3.967108568758704e-05,-2.1601554180961102e-05,2.60147553490242e-05
-6.0294893046375364e-05,3.7335907109081745e-05,-1.891564897960052e-05,2.938859506684821e-05
-5.659138332703151e-05,3.606452082749456e-05,-2.093119837809354e-05,3.3648928365437314e-05
-5.356398833100684e-05,3.771319825318642e-05,-2.8761913199559785e-05,3.8393231079680845e-05
-5.118380067870021e-05,3.6731235013576224e-05,-3.456146441749297e-05,3.999924228992313e-05
-4.995209746994078e-05,3.0849612812744454e-05,-3.5839519114233553e-05,3.8658457924611866e-05
-4.778217771672644e-05,2.88170667772647e-05,-3.340138209750876e-05,3.511211252771318e-05
-4.3632568122120574e-05,3.394853774807416e-05,-3.0540701118297875e-05,3.246764390496537e-05
-4.157996590947732e-05,3.492516407277435e-05,-3.196230318280868e-05,3.191164432791993e-05
-4.246913522365503e-05,3.0699589842697605e-05,-3.5145265428582206e-05,2.8785758331650868e-05
-4.785544297192246e-05,2.87262682832079e-05,-3.591503991628997e-05,2.4879111151676625e-05
-5.201630119699985e-05,3.277197902207263e-05,-3.419594941078685e-05,2.313417826371733e-05
-5.0440507038729265e-05,4.081036240677349e-05,-3.1495837902184576e-05,2.3743104975437745e-05
-4.937269113725051e-05,4.6044966438785195e-05,-2.7828975362353958e-05,2.39927539951168e-05
-5.167759081814438e-05,4.4566575525095686e-05,-2.7885291274287738e-05,2.4015924282139167e-05
-5.268969471217133e-05,3.9311253203777596e-05,-2.956669413833879e-05,2.3413786038872786e-05
-5.38004569534678e-05,3.440883301664144e-05,-2.928420144598931e-05,2.4059474526438862e-05
-5.4758478654548526e-05,3.0540486477548257e-05,-2.7002024580724537e-05,2.711640809138771e-05
-5.213297117734328e-05,2.9161630664020777e-05,-2.4018738258746453e-05,3.111149271717295e-05
-4.712241570814513e-05,2.7260348360869102e-05,-2.2247950255405158e-05,3.3571282983757555e-05
-4.405683284858242e-05,2.4546832719352096e-05,-2.2315287424135022e-05,3.247200220357627e-05
-4.529231955530122e-05,2.1972380636725575e-05,-2.384394610999152e-05,3.014828689629212e-05
-4.8365676775574684e-05,2.2119033019407652e-05,-2.5099943741224706e-05,2.8665372155955993e-05
-4.8861231334740296e-05,2.5843972252914682e-05,-2.547861913626548e-05,2.723957550188061e-05
-4.8185196646954864e-05,3.196153920725919e-05,-2.3744203645037487e-05,2.5220115276169963e-05
-4.939249629387632e-05,3.42582497978583e-05,-2.180520459660329e-05,2.4319622752955183e-05
-4.8592937673674896e-05,2.7443913495517336e-05,-2.1648105757776648e-05,2.3350159608526155e-05
-4.216386514599435e-05,1.9234537830925547e-05,-2.410337947367225e-05,2.301142376381904e-05
-3.497501529636793e-05,1.663573129917495e-05,-2.6300913305021822e-05,2.3175956812337972e-05
-3.3028005418600515e-05,2.0658606445067562e-05,-2.9128930691513233e-05,2.2211337636690587e-05
-3.273541369708255e-05,2.8392292733769864e-05,-3.045395715162158e-05,2.06650893233018e-05
-3.25030559906736e-05,3.148140604025684e-05,-2.9034219551249407e-05,2.0008868887089193e-05
-3.385746822459623e-05,3.004806421813555e-05,-2.9037983040325344e-05,2.0259343727957457e-05
-3.739625753951259e-05,2.91689775622217e-05,-3.2222160371020436e-05,1.8362114133196883e-05
-5.027474253438413e-05,3.254312832723372e-05,-3.782716885325499e-05,1.3167669749236666e-05
-6.239359208848327e-05,3.36826742568519e-05,-4.170408283243887e-05,1.3911548194300849e-05
-6.506256613647565e-05,2.6212372176814824e-05,-4.091579103260301e-05,1.782710933184717e-05
-6.361620762618259e-05,2.1578594896709546e-05,-3.733412449946627e-05,1.9286049791844562e-05
-5.918844908592291e-05,2.8757291147485375e-05,-3.177374310325831e-05,2.0188725102343597e-05
-5.21806396136526e-05,4.196004374534823e-05,-2.8431315513444133e-05,2.0082699847989716e-05
-4.2285973904654384e-05,5.183001849218272e-05,-2.747654252743814e-05,2.0579824195010588e-05
-3.149434633087367e-05,5.411765232565813e-05,-2.6917667128145695e-05,2.3296131985262036e-05
-2.438247793179471e-05,4.816720320377499e-05,-2.4990300516947173e-05,2.6853471354115754e-05
-2.7309688448440284e-05,4.0027796785579994e-05,-2.0269899323466234e-05,2.9881675800425e-05
-3.485146589810029e-05,3.6653516872320324e-05,-1.76184930751333e-05,3.1223618861986324e-05
-4.171199179836549e-05,3.8003076042514294e-05,-2.0004365069326013e-05,2.8363559977151453e-05
-4.761612581205554e-05,3.95742645196151e-05,-2.3746850274619646e-05,2.2001209799782373e-05
-5.366354889702052e-05,4.1408828110434115e-05,-2.5361650841659866e-05,1.8772741896100342e-05
-5.7037446822505444e-05,4.090335642104037e-05,-2.708400643314235e-05,1.8980354070663452e-05
-5.7431603636359796e-05,3.901683521689847e-05,-2.7767457140726037e-05,1.8117505533155054e-05
-5.8894635003525764e-05,3.951448161387816e-05,-2.643488369358238e-05,1.6106239854707383e-05
-6.0652550018858165e-05,4.222497591399588e-05,-2.510099147912115e-05,1.4284028111433145e-05
-6.052721437299624e-05,4.2685860535129905e-05,-2.1993131667841226e-05,1.4456538337981328e-05
-5.918129681958817e-05,4.1373776184627786e-05,-1.609182800166309e-05,1.766808782122098e-05
-5.901975600863807e-05,3.770637704292312e-05,-1.3087037586956285e-05,2.3542426788480952e-05
-6.136084266472608e-05,3.1763094739289954e-05,-1.5585905202897266e-05,2.847302494046744e-05
-6.403790030162781e-05,2.9817842005286366e-05,-1.854349648056086e-05,3.111386831733398e-05
-5.933762440690771e-05,3.11282929033041e-05,-1.9041035557165742e-05,3.127232412225567e-05
-5.2104613132542e-05,2.942590435850434e-05,-1.882203832792584e-05,3.089996971539222e-05
-4.822269329451956e-05,2.1529060177272186e-05,-1.784906089596916e-05,3.148842733935453e-05
-4.8112506192410365e-05,1.4176526747178286e-05,-1.8312561223865487e-05,2.96083544526482e-05
-5.267503365757875e-05,1.3132756976119708e-05,-1.7489863239461556e-05,2.7754560505854897e-05
-5.910934851272032e-05,2.2996358893578872e-05,-1.5258960047503933e-05,2.8004227715427987e-05
-6.272205064306036e-05,3.535119321895763e-05,-1.7677790310699493e-05,2.6469020667718723e-05
-6.091263276175596e-05,4.049411654705182e-05,-1.998140760406386e-05,2.4657376343384385e-05
-5.6791082897689193e-05,3.996604937128723e-05,-2.1439051124616526e-05,2.4992732505779713e-05
-5.249957030173391e-05,3.638853377196938e-05,-2.462194606778212e-05,2.6148447432206012e-05
-4.8684694775147364e-05,3.494980774121359e-05,-2.4046747057582252e-05,2.4586317522334866e-05
-4.8276549932779744e-05,3.618518530856818e-05,-2.301311178598553e-05,2.621757084853016e-05
-5.025125574320555e-05,3.255567207816057e-05,-2.5782108423300087e-05,2.7697898985934444e-05
-5.286049781716429e-05,2.296072489116341e-05,-2.810317891999148e-05,2.4630515326862223e-05
-5.3388492233352736e-05,1.5879166312515736e-05,-2.615177072584629e-05,2.205414421041496e-05
-5.266668813419528e-05,1.3261791536933742e-05,-2.424604826956056e-05,2.1057279809610918e-05
-5.303498619468883e-05,1.2764647181029432e-05,-2.519960980862379e-05,2.1525775082409382e-05
-5.2099741878919303e-05,1.4553872460965067e-05,-2.5459950848016888e-05,2.1472334992722608e-05
-4.87721772515215e-05,1.8575294234324247e-05,-2.542826950957533e-05,1.994448211917188e-05
-4.673863804782741e-05,2.2755999452783726e-05,-2.63224992522737e-05,1.6765628970460966e-05
-4.959474244969897e-05,2.6764433641801588e-05,-2.9920302040409297e-05,1.4109669791650958e-05
-5.3417312301462516e-05,2.8802147426176816e-05,-3.3686141250655055e-05,1.2554199201986194e-05
-5.396980850491673e-05,2.744055018411018e-05,-3.4556731407064945e-05,1.2958631486981176e-05
-5.3042793297208846e-05,2.5686325898277573e-05,-3.118914537481032e-05,1.3819468222209252e-05
-5.2037121349712834e-05,2.5180615921271965e-05,-2.4857898097252473e-05,1.3896827113057952e-05
-5.136070103617385e-05,2.7107833375339396e-05,-1.98132693185471e-05,1.3189322999096476e-05
-5.179567961022258e-05,3.1583327654516324e-05,-1.7487953300587833e-05,1.3986535122967325e-05
-5.1937946409452707e-05,3.677839777083136e-05,-1.8942491806228645e-05,2.0425088223419152e-05
-4.8826819693204015e-05,4.157028888585046e-05,-2.3359056285698898e-05,2.4431528800050728e-05
-4.356211138656363e-05,4.57307614851743e-05,-2.5807981728576124e-05,2.0522060367511585e-05
-4.1071023588301614e-05,3.989395554526709e-05,-2.4155178834917024e-05,1.4930474208085798e-05
-4.0861421439331025e-05,2.8668564482359216e-05,-2.2462834749603644e-05,1.4020683011040092e-05
-4.28904895670712e-05,1.9851988326990977e-05,-2.2025547878001817e-05,1.6903242794796824e-05
-4.297890336601995e-05,1.2032529411953874e-05,-2.5278202883782797e-05,1.8907130652223714e-05
-4.069977512699552e-05,1.4452863979386166e-05,-2.9489647204172798e-05,2.1877262042835355e-05
-4.0511706174584106e-05,2.3244032490765676e-05,-2.6687102945288643e-05,2.3051408788887784e-05
-4.2434330680407584e-05,2.9991848350618966e-05,-2.3740165488561615e-05,2.245129508082755e-05
-4.5153923565521836e-05,3.4828815842047334e-05,-2.4056291294982657e-05,2.214089545304887e-05
-4.014991645817645e-05,3.677604763652198e-05,-2.4932543965405785e-05,2.114557173626963e-05
-2.8544327506097034e-05,3.377110988367349e-05,-2.366959051869344e-05,2.003510235226713e-05
-2.596429840195924e-05,3.0389193852897733e-05,-2.1284880858729593e-05,1.909723323478829e-05
-3.551331246853806e-05,3.0565093766199425e-05,-2.1904277673456818e-05,1.775254168023821e-05
-4.8411922762170434e-05,3.4785945899784565e-05,-2.5527875550324097e-05,1.8071115846396424e-05
-5.402243914431892e-05,4.003747017122805e-05,-2.9740233003394678e-05,2.0947125449310988e-05
-4.607675509760156e-05,4.423617065185681e-05,-3.189948620274663e-05,2.3106162188923918e-05
-3.0458293622359633e-05,4.474453453440219e-05,-3.197528712917119e-05,2.2458048988482915e-05
-1.8037171685136855e-05,3.835792813333683e-05,-3.1114101147977635e-05,2.0671037418651395e-05
-1.6558042261749506e-05,3.214165917597711e-05,-3.281406679889187e-05,2.0296894945204258e-05
-2.3180260541266762e-05,3.214646130800247e-05,-3.49343717971351e-05,2.2076579625718296e-05
-2.9878434361307882e-05,3.4439810406183824e-05,-3.363668292877264e-05,2.3984483050298877e-05
-3.77253963961266e-05,3.734216807060875e-05,-3.2486841519130394e-05,2.1197985915932804e-05
-4.692339643952437e-05,4.208064638078213e-05,-3.51930211763829e-05,1.8891052604885772e-05
-5.1989823987241834e-05,4.6262859541457146e-05,-3.651513907243498e-05,2.444009078317322e-05
-5.5879423598526046e-05,4.955508848070167e-05,-3.310434476588853e-05,3.424442184041254e-05
-5.7152428780682385e-05,4.942682426190004e-05,-3.0484075978165492e-05,3.679977817228064e-05
-5.352992957341485e-05,4.8868510930333287e-05,-2.8649768864852376e-05,3.276168354204856e-05
-5.449673335533589e-05,4.788867590832524e-05,-2.4080063667497598e-05,3.1451982067665085e-05
-6.442483572755009e-05,4.2025360016850755e-05,-2.332710391783621e-05,2.9637418265338056e-05
-6.911116361152381e-05,3.8458303606603295e-05,-2.5037241357495077e-05,2.551997204136569e-05
-6.392900104401633e-05,4.2808336729649454e-05,-2.6820674975169823e-05,2.3438153220922686e-05
-6.232222222024575e-05,4.858034662902355e-05,-2.634624070196878e-05,2.2313288354780525e-05
-6.628442497458309e-05,4.945580076309852e-05,-2.6546653316472657e-05,2.286558083142154e-05
-6.938145088497549e-05,4.8511643399251625e-05,-3.0351855457411148e-05,2.5608977011870593e-05
-6.329750613076612e-05,4.886333044851199e-05,-3.3895481465151533e-05,2.667413718882017e-05
-5.377242268878035e-05,4.555616033030674e-05,-3.593231303966604e-05,2.362892519158777e-05
-5.001510726287961e-05,4.100081423530355e-05,-3.31133596773725e-05,2.263139140268322e-05
-5.061728006694466e-05,3.634010863606818e-05,-2.8259188184165396e-05,2.6574487492325716e-05
-5.4182713938644156e-05,3.067665238631889e-05,-2.551624311308842e-05,2.965010207844898e-05
-5.7757413742365316e-05,2.5963474399759434e-05,-2.7327396310283802e-05,2.8839522201451473e-05
-5.7392087910557166e-05,2.3329823306994513e-05,-2.9307791919563897e-05,2.7177982701687142e-05
-5.217547732172534e-05,2.3130383851821534e-05,-3.020595249836333e-05,2.673209564818535e-05
-4.7366229409817606e-05,2.363831299589947e-05,-3.066478166147135e-05,2.6084007913595997e-05
-4.608299059327692e-05,2.2162837922223844e-05,-3.152749195578508e-05,2.491109808033798e-05
-4.973154136678204e-05,1.913059168145992e-05,-3.357607056386769e-05,2.3377469915430993e-05
-5.74857258470729e-05,1.753177639329806e-05,-3.518278390401974e-05,2.3169764972408302e-05
-6.485654739663005e-05,1.667604192334693e-05,-3.431887671467848e-05,2.5718431061250158e-05
-6.608117109863088e-05,1.8358543456997722e-05,-3.251397720305249e-05,2.982013756991364e-05
-6.463962199632078e-05,2.4651722924318165e-05,-3.0094688554527238e-05,3.238156205043197e-05
-6.316390499705449e-05,2.936233431682922e-05,-2.782040428428445e-05,3.2898809877224267e-05
-6.068799484637566e-05,2.705080078158062e-05,-2.9099466701154597e-05,3.155275044264272e-05
-6.025431503076106e-05,2.5635239580878988e-05,-3.136885788990185e-05,3.0256636819103733e-05
-6.099138772697188e-05,3.082981857005507e-05,-3.324516728753224e-05,2.8743605071213096e-05
-6.112818664405495e-05,3.740955799003132e-05,-3.44752443197649e-05,2.8268646929063834e-05
-5.607981438515708e-05,4.182001430308446e-05,-3.404384551686235e-05,3.156538514303975e-05
-5.020981916459277e-05,4.2985924665117636e-05,-3.0339218938024715e-05,3.2746804208727553e-05
-4.708921551355161e-05,3.570807530195452e-05,-2.8382284654071555e-05,3.074578853556886e-05
-4.5361837692325935e-05,2.5927334718289785e-05,-2.8706243028864264e-05,3.098771412624046e-05
-4.48673490609508e-05,1.8176731828134507e-05,-2.635469900269527e-05,3.1365794711746275e-05
-4.723108577309176e-05,1.375554802507395e-05,-2.448448503855616e-05,2.9142705898266286e-05
-5.060356852482073e-05,1.4951085177017376e-05,-2.4859318727976643e-05,2.7707810659194365e-05
-4.7774788981769234e-05,1.7763728465070017e-05,-2.6148201868636534e-05,2.6444664399605244e-05
-4.016931416117586e-05,1.847476050897967e-05,-2.5483470381004736e-05,2.315999699931126e-05
-3.4179807698819786e-05,1.9858624000335112e-05,-2.290465636178851e-05,2.2731615899829194e-05
-3.0877232347847894e-05,2.266350929858163e-05,-2.121995021298062e-05,2.422743091301527e-05
-2.8300621124799363e-05,2.2012825866113417e-05,-1.916904147947207e-05,2.3328879251494072e-05
-2.8989968996029347e-05,1.701561632216908e-05,-1.757003519742284e-05,2.251774276373908e-05
-3.206458131899126e-05,1.1318580618535634e-05,-1.7808029951993376e-05,2.311180651304312e-05
-3.610675048548728e-05,7.121635007933946e-06,-1.6471229173475876e-05,2.3553164282930084e-05
-3.5270357329864055e-05,1.9816525309579447e-06,-1.4329660189105198e-05,2.260539804410655e-05
-2.8099977498641238e-05,-4.001913566753501e-06,-1.5228496522468049e-05,2.1075038603157736e-05
-2.044053871941287e-05,-5.881508513994049e-06,-1.752335811033845e-05,1.9143646568409167e-05
-1.5870666175032966e-05,-1.572946302985656e-06,-1.8581529729999602e-05,1.623033676878549e-05
-1.3495196981239133e-05,4.754541805596091e-06,-1.92493389477022e-05,1.2292224710108712e-05
-1.289561259909533e-05,9.96883954940131e-06,-2.0751238480443135e-05,1.1378078852430917e-05
-1.4493319213215727e-05,1.4189689863997046e-05,-2.1787467630929314e-05,1.5258193343470339e-05
-1.4166043911245652e-05,1.9664017600007355e-05,-2.1786636352771893e-05,1.8964987248182297e-05
-1.0389575436420273e-05,2.5682273189886473e-05,-2.1964933694107458e-05,1.8485015971236862e-05
-9.136025255429558e-06,3.375558299012482e-05,-2.4430535631836392e-05,1.4366263712872751e-05
-9.677331945567857e-06,5.084131771582179e-05,-2.6092493499163538e-05,1.3902025784773286e-05
-7.397275112452917e-06,7.484493835363537e-05,-2.4644457880640402e-05,2.0834897441091016e-05
-1.3928885891800746e-05,9.733317710924894e-05,-2.438560659356881e-05,3.077747533097863e-05
-3.2758285669842735e-05,0.0001044928067130968,-2.7480940843815915e-05,3.307726001366973e-05
-4.44196630269289e-05,8.982465078588575e-05,-2.4867764295777306e-05,3.0473654987872578e-05
-4.7670564526924863e-05,6.558506720466539e-05,-2.0453289835131727e-05,2.775147913780529e-05
-5.7643868785817176e-05,4.555132181849331e-05,-2.6858520868699998e-05,2.2551501388079487e-05
-7.305712642846629e-05,3.927560828742571e-05,-3.397129330551252e-05,1.9293776858830824e-05
-8.89156071934849e-05,4.028325201943517e-05,-3.346530502312817e-05,1.7332109564449638e-05
-9.72491325228475e-05,4.0406066545983776e-05,-2.8727192329824902e-05,1.9850987882819027e-05
-0.00010081986692966893,3.7461246392922476e-05,-2.621202111185994e-05,2.3291479010367766e-05
-9.978442540159449e-05,3.111178375547752e-05,-2.549072087276727e-05,2.1902505977777764e-05
-9.352793858852237e-05,2.032127304119058e-05,-2.3378292098641396e-05,1.7306130757788196e-05
-8.536676614312455e-05,1.0905363524216227e-05,-2.375369513174519e-05,1.5184494259301573e-05
-7.74813088355586e-05,9.11284951143898e-06,-2.7306841730023734e-05,1.844057987909764e-05
-7.521708903368562e-05,1.4068071322981268e-05,-2.9197184630902484e-05,2.3680335289100185e-05
-7.762632594676688e-05,2.0415462131495588e-05,-2.860957829398103e-05,2.6123188945348375e-05
-8.154541865224019e-05,2.528518598410301e-05,-2.704982580326032e-05,2.4778903025435284e-05
-8.425993291893974e-05,3.236781049054116e-05,-2.6880290533881634e-05,2.5434621420572512e-05
-8.248560334322974e-05,4.172221088083461e-05,-2.8812679374823347e-05,2.8864782507298514e-05
-7.536305201938376e-05,5.0366743380436674e-05,-2.924369982792996e-05,3.039744115085341e-05
-6.838388799224049e-05,5.511346535058692e-05,-2.933298674179241e-05,2.7099424187326804e-05
-6.54804753139615e-05,5.6208511523436755e-05,-3.146300878142938e-05,2.287024472025223e-05
-6.355708319460973e-05,5.6452099670423195e-05,-3.205492248525843e-05,2.0796134776901454e-05
-6.029033465893008e-05,5.841287929797545e-05,-2.7852858693222515e-05,2.0017596398247406e-05
-5.967007018625736e-05,5.877003422938287e-05,-2.2031616026652046e-05,2.0148772819084115e-05
-6.060035229893401e-05,5.855914423591457e-05,-1.9033348507946357e-05,2.088196197291836e-05
-6.0801845393143594e-05,5.730461634811945e-05,-1.880307354440447e-05,1.880133459053468e-05
-5.928918471909128e-05,5.481118569150567e-05,-2.087552275042981e-05,1.6714320736355148e-05
-5.328470797394402e-05,5.339229028322734e-05,-2.2938167603570037e-05,1.9034450815524906e-05
-5.044942008680664e-05,5.221273750066757e-05,-1.958039320015814e-05,2.2419550077756867e-05
-5.4266511142486706e-05,4.5246677473187447e-05,-1.7645483239903115e-05,2.6432408049004152e-05
-5.889678141102195e-05,3.787655077758245e-05,-1.9562859961297363e-05,3.110989200649783e-05
-6.270412268349901e-05,3.7230682210065424e-05,-2.0629280697903596e-05,3.3412543416488916e-05
-6.183241202961653e-05,3.484700573608279e-05,-1.8169255781685933e-05,3.405179813853465e-05
-5.949488331680186e-05,3.079131420236081e-05,-1.490250178903807e-05,2.958464938274119e-05
-5.679913374478929e-05,2.4034488887991756e-05,-1.6315510947606526e-05,2.571288132457994e-05
-5.327822873368859e-05,1.4674254998681135e-05,-1.9766444893321022e-05,2.5325123715447262e-05
-4.50040606665425e-05,8.042496119742282e-06,-2.047429370577447e-05,2.4235447199316695e-05
-3.2071540772449225e-05,2.829810000548605e-06,-1.734255056362599e-05,2.159949144697748e-05
-1.8514745534048416e-05,-1.5245407212205464e-06,-1.6862140910234302e-05,1.9431834516581148e-05
-1.2000605238426942e-05,-2.433146164548816e-06,-1.9886276277247816e-05,2.2521224309457466e-05
-9.8660311778076e-06,2.1995283816522715e-07,-2.1030376956332475e-05,2.44828643189976e-05
-6.956797278689919e-06,1.719950546430482e-06,-1.8199163605459034e-05,2.060484985122457e-05
-7.0191463237279095e-06,3.0794076337770093e-06,-1.5389601685456e-05,1.5070536392158829e-05
-1.410184722772101e-05,5.3882768042967655e-06,-1.5533611076534726e-05,1.4416370504477527e-05
-2.75749134743819e-05,9.987555131374393e-06,-1.7783722796593793e-05,1.97148783627199e-05
-3.994913640781306e-05,1.7250620658160187e-05,-1.9004333807970397e-05,2.7751009838539176e-05
-5.278756361803971e-05,2.54441565630259e-05,-1.8279599316883832e-05,3.260662197135389e-05
-6.90443193889223e-05,3.0110082661849447e-05,-2.1079187717987224e-05,3.395816747797653e-05
-8.171585068339482e-05,2.8546719477162696e-05,-2.671151014510542e-05,3.28642527165357e-05
-8.39994681882672e-05,2.573118581494782e-05,-3.073560947086662e-05,3.2996667869156227e-05
-8.409555448452011e-05,2.8122440198785625e-05,-3.2393796573160216e-05,3.440945874899626e-05
-8.774999878369272e-05,4.223247378831729e-05,-3.136720624752343e-05,3.298425872344524e-05
-9.250779112335294e-05,5.879753371118568e-05,-2.929100810433738e-05,3.0689021514263004e-05
-8.946787420427427e-05,6.382312858477235e-05,-2.8446604119380936e-05,2.965386738651432e-05
-8.79017825354822e-05,5.874467751709744e-05,-2.7980147933703847e-05,2.8193602702231146e-05
-8.574565435992554e-05,4.91923165100161e-05,-2.6333165806136094e-05,2.413995207461994e-05
-7.622603880008683e-05,4.484004603000358e-05,-2.8541395295178518e-05,2.633597978274338e-05
-6.749581370968372e-05,4.5234381104819477e-05,-3.338338137837127e-05,3.231441223761067e-05
-5.951990169705823e-05,4.170567626715638e-05,-3.349316830281168e-05,3.246789128752425e-05
-5.455437349155545e-05,3.0979528673924506e-05,-3.0153874831739813e-05,2.8425007258192636e-05
-5.270439214655198e-05,1.9088418412138708e-05,-2.946114727819804e-05,2.3847227566875517e-05
-5.344619421521202e-05,1.2551321560749784e-05,-2.921079794759862e-05,2.1195804947637953e-05
-5.2060160669498146e-05,8.517336937075015e-06,-2.5284680305048823e-05,1.656308268138673e-05
-4.393010385683738e-05,1.1688683116517495e-05,-2.340237369935494e-05,1.2159899597463664e-05
-3.532228583935648e-05,1.7691201719571836e-05,-2.50784978561569e-05,1.172328120446764e-05
-3.450876465649344e-05,2.313364348083269e-05,-2.7709349524229765e-05,1.2418702681316063e-05
-4.0659626392880455e-05,2.8265370929148048e-05,-2.7822427000501193e-05,1.0926077266049106e-05
-4.4296357373241335e-05,3.2220272260019556e-05,-2.750992643996142e-05,9.615961971576326e-06
-4.238430119585246e-05,3.426940384088084e-05,-2.876744110835716e-05,1.2566301847982686e-05
-3.8039201172068715e-05,3.5831122659146786e-05,-3.109212048002519e-05,1.5156292647588998e-05
-3.235687836422585e-05,3.24630927934777e-05,-3.4542270441306755e-05,1.5382112906081602e-05
-2.6059033189085312e-05,2.4990655219880864e-05,-3.8208796468097717e-05,1.5645719031454064e-05
-2.3373324438580312e-05,2.5859164452413097e-05,-3.952985935029574e-05,1.8673932572710328e-05
-2.5381194063811563e-05,3.6620829632738605e-05,-3.593805377022363e-05,2.3821710783522576e-05
-2.8250045943423174e-05,4.686481042881496e-05,-3.0190312827471644e-05,2.656304422998801e-05
-3.0229828553274274e-05,5.2904331823810935e-05,-2.8204458430991508e-05,2.4806218789308332e-05
-3.0865470762364566e-05,5.690272882930003e-05,-3.0392549888347276e-05,2.42555579461623e-05
-2.80989315797342e-05,5.421711102826521e-05,-3.290120730525814e-05,2.7221913114772178e-05
-2.447418046358507e-05,4.5445198338711634e-05,-3.408149859751575e-05,3.1503557693213224e-05
-2.9736564101767726e-05,3.4118238545488566e-05,-3.247044514864683e-05,3.177796315867454e-05
-3.667344935820438e-05,2.5710267436807044e-05,-3.0477989639621228e-05,2.740601667028386e-05
-3.527984517859295e-05,2.2217383957467973e-05,-3.154669684590772e-05,2.638411388034001e-05
-3.200973878847435e-05,2.4981796741485596e-05,-3.103353810729459e-05,2.491258055670187e-05
-3.5113454941892996e-05,2.9827762773493305e-05,-2.5994961106334813e-05,2.0844961909460835e-05
-3.91078538086731e-05,2.8781021683244035e-05,-2.2356583940563723e-05,2.4032124201767147e-05
-4.377815275802277e-05,2.146564111171756e-05,-2.3175556634669192e-05,3.141915294690989e-05
-4.961606100550853e-05,1.4436482160817832e-05,-3.0521161534124985e-05,3.467914939392358e-05
-5.142912414157763e-05,1.527159292891156e-05,-3.4425785997882485e-05,3.252604801673442e-05
-5.0878359616035596e-05,1.8397415260551497e-05,-3.388265395187773e-05,2.549780037952587e-05
-5.145731120137498e-05,1.6496129319421016e-05,-3.152423232677393e-05,1.869880361482501e-05
-5.1632378017529845e-05,1.3792911886412185e-05,-2.8101716452511027e-05,1.5466128388652578e-05
-4.979994992027059e-05,1.0947303962893784e-05,-2.906757072196342e-05,1.6336194676114246e-05
-5.1548606279538944e-05,8.437122232862748e-06,-3.0513929232256487e-05,1.8393599020782858e-05
-5.6148757721530274e-05,1.0253867003484629e-05,-3.166047827107832e-05,1.9681803678395227e-05
-6.15506578469649e-05,1.7013268006849103e-05,-3.102445771219209e-05,1.9945016902056523e-05
-6.013827442075126e-05,2.2897849703440443e-05,-3.010964246641379e-05,2.0895675334031694e-05
-5.3699415730079636e-05,2.5731726054800674e-05,-2.9570179322035983e-05,2.374731411691755e-05
-4.787806756212376e-05,2.701702032936737e-05,-2.795950604195241e-05,2.63159836322302e-05
-4.615149737219326e-05,2.8533182558021508e-05,-2.4864213628461584e-05,2.3578497348353267e-05
-4.54481560154818e-05,3.1117277103476226e-05,-2.20187157538021e-05,1.844572943809908e-05
-4.1849656554404646e-05,3.489238224574365e-05,-1.9182500182068907e-05,1.9672619600896724e-05
-3.5942703107139096e-05,3.887780258082785e-05,-1.5972413166309707e-05,2.633890471770428e-05
-3.24680186167825e-05,4.354338307166472e-05,-1.5274459656211548e-05,3.213156742276624e-05
-3.403986556804739e-05,5.016863360651769e-05,-1.9911196432076395e-05,3.2902651582844555e-05
-3.502713661873713e-05,5.351009895093739e-05,-2.4973331164801493e-05,2.839930311893113e-05
-3.838092015939765e-05,5.59009968128521e-05,-2.2846505089546554e-05,2.514470907044597e-05
-4.28609419032e-05,6.127736560301855e-05,-1.8050795915769413e-05,2.724738988035824e-05
-4.283507587388158e-05,6.105914508225396e-05,-1.7779342670110054e-05,2.7225891244597733e-05
-3.933564221370034e-05,5.3950185247231275e-05,-2.0924258933519013e-05,2.4048027626122348e-05
-3.72210270143114e-05,5.0308950449107215e-05,-2.3060929379425943e-05,2.6519976017880253e-05
-3.47392306139227e-05,5.204471744946204e-05,-2.3529117243015207e-05,3.301644028397277e-05
-3.4790737117873505e-05,5.39065949851647e-05,-2.133234556822572e-05,3.540283069014549e-05
-3.55032279912848e-05,5.225169297773391e-05,-1.98066009033937e-05,3.201525760232471e-05
-3.900100273313001e-05,4.806782817468047e-05,-2.2603564502787776e-05,2.6777299353852868e-05
-4.582970723276958e-05,5.075260196463205e-05,-2.7228477847529575e-05,2.4858873075572774e-05
-5.256185249891132e-05,5.688565943273716e-05,-2.826764466590248e-05,2.5576491680112667e-05
-5.691000114893541e-05,5.492813579621725e-05,-2.554577076807618e-05,2.6960244213114493e-05
-5.908159073442221e-05,4.619189348886721e-05,-2.306763781234622e-05,2.673398921615444e-05
-5.94882330915425e-05,3.451636075624265e-05,-2.3610702555743046e-05,2.576084625616204e-05
-6.055416815797798e-05,2.4214097720687278e-05,-2.6255500415572897e-05,2.586002301541157e-05
-6.659024802502245e-05,1.741097730700858e-05,-2.6449846700415947e-05,2.8617019779630937e-05
-7.21474425517954e-05,1.555203925818205e-05,-2.3640677682124078e-05,3.120716064586304e-05
-7.416497101075947e-05,1.8314878616365604e-05,-1.977769352379255e-05,3.0380719181266613e-05
-7.67760502640158e-05,2.967636646644678e-05,-1.774737029336393e-05,2.8860031306976452e-05
-8.327457908308133e-05,4.415920193423517e-05,-1.6861053154570982e-05,2.8758697226294316e-05
-8.401647210121155e-05,5.2183851948939264e-05,-1.798195626179222e-05,2.7120806407765485e-05
-7.727433694526553e-05,5.363085801945999e-05,-2.171856067434419e-05,2.4128705263137817e-05
-7.017997995717451e-05,5.300732664181851e-05,-2.3953485651873052e-05,2.2484990040538833e-05
-6.872642552480102e-05,4.9347134336130694e-05,-2.416165079921484e-05,2.1750194719061255e-05
-7.03938421793282e-05,4.29193205491174e-05,-2.5555502361385152e-05,2.1485513570951298e-05
-6.629757262999192e-05,3.638461566879414e-05,-2.5922814529621974e-05,2.4063436285359785e-05
-5.823991523357108e-05,3.09828101308085e-05,-2.6775865990202874e-05,2.9426943001453765e-05
-5.290353874443099e-05,3.234973337384872e-05,-2.9964558052597567e-05,3.0258432161645032e-05
-4.8018013330874965e-05,3.732655386556871e-05,-3.086230208282359e-05,2.7018222681363113e-05
-4.3839288991875947e-05,3.534081770339981e-05,-2.8541962819872424e-05,2.29290690185735e-05
-4.035663732793182e-05,2.331021096324548e-05,-2.6973433705279604e-05,1.993677142309025e-05
-3.844753882731311e-05,7.68498739489587e-06,-2.85199439531425e-05,1.8256258044857532e-05
-4.0676499338587746e-05,-1.0775626833492424e-05,-3.187171387253329e-05,1.663858347455971e-05
-4.243389776092954e-05,-3.401402136660181e-05,-3.432177618378773e-05,1.6613548723398708e-05
-4.191552216070704e-05,-5.1180617447244003e-05,-3.457278216956183e-05,1.792757393559441e-05
-3.586661478038877e-05,-5.598724601441063e-05,-3.339970135129988e-05,1.6437412341474555e-05
-2.6827176043298095e-05,-5.4995951359160244e-05,-2.9408767659333535e-05,1.1820966392406262e-05
-2.2920719857211225e-05,-4.570416786009446e-05,-2.4939083232311532e-05,9.299846169597004e-06
-1.9382083337404765e-05,-2.4430337361991405e-05,-1.9459894247120246e-05,1.2773774869856425e-05
-1.1664963494695257e-05,7.705312782491092e-06,-1.8745868146652356e-05,1.8634316802490503e-05
-8.278124369098805e-06,4.334424011176452e-05,-1.846425402618479e-05,2.0693496480816975e-05
-1.3190772733651102e-05,7.021144847385585e-05,-1.6164671251317486e-05,2.040784056589473e-05
-1.99653204617789e-05,7.359110895777121e-05,-1.7457190551795065e-05,2.1724550606450066e-05
-2.1032425138400868e-05,5.510597111424431e-05,-2.1601372282020748e-05,2.2975698811933398e-05
-1.902905569295399e-05,2.872675031539984e-05,-2.5805205950746313e-05,2.034238241321873e-05
-2.0817215045099147e-05,1.0847295015992131e-05,-2.7764635888161138e-05,1.585304198670201e-05
-2.8284503059694543e-05,1.4947921044949908e-05,-2.895333273045253e-05,1.596607398823835e-05
-4.1132141632260755e-05,3.6329431168269366e-05,-2.8324384402367286e-05,1.9300938220112585e-05
-5.7247110817115754e-05,5.2383918955456465e-05,-2.785969991236925e-05,2.1132384063093923e-05
-7.054922025417909e-05,5.4575197282247245e-05,-2.777445115498267e-05,2.107321415678598e-05
-7.770705269649625e-05,6.115785799920559e-05,-2.736715759965591e-05,2.1149817257537507e-05
-8.199476724257693e-05,8.598523709224537e-05,-2.867874900402967e-05,2.282094646943733e-05
-8.595266990596429e-05,0.00011942532000830397,-3.529567766236141e-05,2.5450388420722447e-05
-8.644421905046329e-05,0.00013848344678990543,-3.983442366006784e-05,2.634761949593667e-05
-8.56029728311114e-05,0.00014372939767781645,-3.658894638647325e-05,2.639112062752247e-05
-8.634048572275788e-05,0.0001465042878407985,-3.277986979810521e-05,2.6536587029113434e-05
-8.056003571255133e-05,0.00013506316463463008,-3.481137900962494e-05,2.5575029212632217e-05
-6.965676584513858e-05,0.00010647017188603058,-3.749981988221407e-05,2.6084369892487302e-05
-6.379880505846813e-05,7.84774892963469e-05,-3.681521047838032e-05,2.7130536182085052e-05
-5.961643546470441e-05,6.21682993369177e-05,-3.474858385743573e-05,3.0838615202810615e-05
-5.341589348972775e-05,5.1976963732158765e-05,-3.316790025564842e-05,3.4394939575577155e-05
-5.1514118240447715e-05,3.871350418194197e-05,-3.075941276620142e-05,3.2472380553372204e-05
-5.5792475905036554e-05,2.418095391476527e-05,-2.8813979952246882e-05,2.777654299279675e-05
-6.114817369962111e-05,2.117973053827882e-06,-3.04227269225521e-05,2.4376233341172338e-05
-6.385274900821969e-05,-2.5743673177203164e-05,-3.3181277103722095e-05,2.2745914975530468e-05
-6.0297785239527e-05,-5.121377398609184e-05,-3.500041930237785e-05,2.1394342184066772e-05
-5.242521729087457e-05,-6.323186971712857e-05,-3.523399573168717e-05,2.0990470147808082e-05
-4.840254405280575e-05,-5.993426748318598e-05,-3.3890501072164625e-05,2.0003684767289087e-05
-4.773434193339199e-05,-5.668774610967375e-05,-3.1414492696058005e-05,1.6923904695431702e-05
-4.7809888201300055e-05,-6.288972508627921e-05,-2.7265470635029487e-05,1.6041522030718625e-05
-4.318276114645414e-05,-7.406860822811723e-05,-2.5290042685810477e-05,1.9313860320835374e-05
-3.772920899791643e-05,-7.769205694785342e-05,-2.6779558538692072e-05,2.1684099920094013e-05
-3.636316614574753e-05,-6.913336255820468e-05,-2.7259060516371392e-05,2.141798540833406e-05
-3.7854682886973023e-05,-5.366403638618067e-05,-2.518844667065423e-05,1.881287789728958e-05
-3.5573513741837814e-05,-3.657099659903906e-05,-2.20361580431927e-05,1.6451867850264534e-05
-2.8582335289684124e-05,-1.395987237629015e-05,-2.0968034732504748e-05,1.4523385289066937e-05
-2.3415836039930582e-05,1.6158890502993017e-05,-2.2273048671195284e-05,1.3604654668597504e-05
-2.471086918376386e-05,4.729219654109329e-05,-2.3489914383389987e-05,1.5934547263896093e-05
-3.168686816934496e-05,7.058976189000532e-05,-2.3027821953292005e-05,2.075375959975645e-05
-3.785699300351553e-05,8.44303285703063e-05,-2.4598932213848457e-05,2.5244708012905903e-05
-3.8546830182895064e-05,9.460088040214032e-05,-2.580606087576598e-05,2.6186009563389234e-05
-3.1578234484186396e-05,0.00010727674816735089,-2.3505455828853883e-05,2.4114509869832546e-05
-2.7617837986326776e-05,0.00012100194726372138,-2.1711530280299485e-05,2.209502417827025e-05
-3.195090903318487e-05,0.0001394316932419315,-2.0920238966937177e-05,2.1474887034855783e-05
-4.0583196096122265e-05,0.00016509895795024931,-2.041012339759618e-05,2.4297512936755084e-05
-4.87757170049008e-05,0.0001798604935174808,-2.1682633814634755e-05,2.8464877686928958e-05
-5.371337465476245e-05,0.00015871292271185666,-2.332105941604823e-05,2.914752985816449e-05
-5.6546268751844764e-05,9.90020707831718e-05,-2.066259185085073e-05,3.082443436142057e-05
-6.0866979765705764e-05,2.8894530260004103e-05,-1.4760338672203943e-05,3.242968159611337e-05
-6.470374501077458e-05,-2.9680541047127917e-05,-1.2110355783079285e-05,2.9103019187459722e-05
-6.907291390234604e-05,-6.786604353692383e-05,-1.3616164324048441e-05,2.095288800774142e-05
-7.345694029936567e-05,-8.788614650256932e-05,-1.9096347386948764e-05,1.2045991752529517e-05
-7.263179577421397e-05,-0.00010246869351249188,-2.226680953754112e-05,7.240792001539376e-06
-6.930305244168267e-05,-0.00012193567090434954,-1.9100960344076157e-05,6.621391548833344e-06
-6.317464431049302e-05,-0.0001435322337783873,-1.5875441022217274e-05,8.038439773372374e-06
-5.7316636230098084e-05,-0.0001375077699776739,-1.800784593797289e-05,1.1319981240376364e-05
-5.82636748731602e-05,-8.032588812056929e-05,-2.4684948584763333e-05,1.3120845324010588e-05
-6.19337588432245e-05,1.8255842633152497e-06,-3.077232395298779e-05,1.0989478141709697e-05
-6.180191121529788e-05,5.9556547057582065e-05,-3.2955351343844086e-05,1.0825498975464143e-05
-5.348410923033953e-05,8.42127701616846e-05,-3.116638254141435e-05,1.8772256225929596e-05
-4.312366581871174e-05,9.391986532136798e-05,-2.8506939997896552e-05,2.916811172326561e-05
-3.915659908670932e-05,0.00010358340659877285,-2.7418151148594916e-05,3.50170666933991e-05
-4.472577347769402e-05,0.00011912616901099682,-2.8484406357165426e-05,3.762427513720468e-05
-5.752129072789103e-05,0.00013714033411815763,-2.951137321360875e-05,3.859289063257165e-05
-7.368522346951067e-05,0.0001439102488802746,-2.822856004058849e-05,3.913225373253226e-05
-8.463805716019124e-05,0.0001337731082458049,-2.5940484192688018e-05,3.987244417658076e-05
-8.376833284273744e-05,0.00011582331353565678,-2.608895920275245e-05,3.7249745219014585e-05
-7.71325794630684e-05,0.00010196446237387136,-2.7823587515740655e-05,3.2730753446230665e-05
-7.187698793131858e-05,0.00010181882680626586,-2.971824687847402e-05,3.267614738433622e-05
-6.951847899472341e-05,0.00011451306636445224,-2.9629598429892212e-05,3.435605322010815e-05
-7.30297397240065e-05,0.00013299909187480807,-2.581517765065655e-05,3.317274968139827e-05
-7.799168088240549e-05,0.00013973313616588712,-2.0262965335859917e-05,2.8919097530888394e-05
-7.405699579976499e-05,0.0001243266451638192,-2.1140960598131642e-05,2.390098597970791e-05
-6.587069947272539e-05,8.996161341201514e-05,-2.7093336029793136e-05,2.453868910379242e-05
-5.382416566135362e-05,4.2230720282532275e-05,-3.061828829231672e-05,3.097214357694611e-05
-3.885795013047755e-05,-5.8053556131199e-06,-3.2982959965011105e-05,3.396999818505719e-05
-3.27194356941618e-05,-3.204992026439868e-05,-3.274509072070941e-05,3.151821147184819e-05
-3.478835424175486e-05,-3.3010790502885357e-05,-3.0158493245835416e-05,2.793398016365245e-05
-2.9571314371423796e-05,-2.8217087674420327e-05,-2.6120138500118628e-05,2.672517075552605e-05
-1.937669912877027e-05,-1.7711490727378987e-05,-2.36466912610922e-05,2.5012128389789723e-05
-1.4772911526961252e-05,2.253742604807485e-05,-2.1576228391495533e-05,2.1023697627242655e-05
-1.5299290680559352e-05,8.243093907367438e-05,-1.8223152437712997e-05,1.7105387087212875e-05
-1.8642391296452843e-05,0.00011423113028286025,-1.6792007954791188e-05,1.6297146430588327e-05
-2.128865526174195e-05,9.787438466446474e-05,-1.711320692265872e-05,2.0237672288203612e-05
-2.1045920220785774e-05,5.811523078591563e-05,-1.843838435888756e-05,2.338337799301371e-05
-2.4048811610555276e-05,2.4236031094915234e-05,-2.079224395856727e-05,2.13480852835346e-05
-3.3666226954665035e-05,6.112004939495819e-06,-2.2770582290831953e-05,1.903509473777376e-05
-4.525509575614706e-05,-7.161349003581563e-06,-2.3785671146470122e-05,1.8141514374292456e-05
-5.0709990318864584e-05,-2.0866631530225277e-05,-2.5984096282627434e-05,1.647081080591306e-05
-4.993301263311878e-05,-2.2426418581744656e-05,-2.756828507699538e-05,1.5247837836795952e-05
-4.287303818273358e-05,-8.724707186047453e-06,-2.4769382434897125e-05,1.5676079783588648e-05
-3.4004620829364285e-05,8.155788236763328e-06,-1.9868490198859945e-05,1.6956339095486328e-05
-3.106566873611882e-05,1.9648867237265222e-05,-1.987346331588924e-05,1.981678360607475e-05
-3.04626373690553e-05,2.122386831615586e-05,-2.3628201233805157e-05,2.5685827495181002e-05
-3.049673614441417e-05,1.4722952982992865e-05,-2.6223422537441365e-05,2.9799015464959666e-05
-3.406978794373572e-05,1.1325289960950613e-05,-2.5640150852268562e-05,2.952533759525977e-05
-4.0479131712345406e-05,8.578727829444688e-06,-2.4573866539867595e-05,2.6644875106285326e-05
-4.277144034858793e-05,-1.960800182132516e-05,-2.3360218619927764e-05,2.4437194952042773e-05
-3.5660348657984287e-05,-7.642497075721622e-05,-2.175244844693225e-05,1.9876661099260673e-05
-2.159023097192403e-05,-0.0001286968181375414,-2.5318009647889994e-05,1.506796161265811e-05
-7.369397280854173e-06,-0.00014933721104171127,-2.6303790946258232e-05,1.9550150682334788e-05
-5.793459081360197e-07,-0.00013903727813158184,-2.174086512241047e-05,2.639539889059961e-05
-6.647313057328574e-06,-0.00010465408558957279,-1.741617415973451e-05,2.9664102839888074e-05
-1.754726326907985e-05,-5.794683602289297e-05,-1.566086575621739e-05,2.7661724743666127e-05
-2.6698933652369305e-05,-1.4442959582083859e-05,-2.018085251620505e-05,2.2347607227857225e-05
-3.3577638532733545e-05,3.394895247765817e-05,-2.5233566702809185e-05,2.0672947357525118e-05
-4.005669688922353e-05,7.5712421676144e-05,-2.7847032470162958e-05,2.4075281544355676e-05
-4.550664743874222e-05,8.871631871443242e-05,-2.6381334464531392e-05,2.9736020223936066e-05
-5.1227860240032896e-05,7.633418863406405e-05,-2.5001956601045094e-05,3.0567745852749795e-05
-5.8198344049742445e-05,6.660546932835132e-05,-2.9520204407162964e-05,2.839628177753184e-05
-6.826577009633183e-05,7.515386823797598e-05,-3.663689494715072e-05,2.6480758606339805e-05
-8.30017525004223e-05,9.041620069183409e-05,-4.010014527011663e-05,2.5212153559550643e-05
-9.514691191725433e-05,9.433990635443479e-05,-3.5603447031462565e-05,2.4653907530591823e-05
-9.681618394097313e-05,8.766537212068215e-05,-2.8581827791640535e-05,2.4142764232237823e-05
-8.803002128843218e-05,8.433589391643181e-05,-2.3233167667058297e-05,2.4224351363955066e-05
-8.19866982055828e-05,8.931801130529493e-05,-2.08741330425255e-05,2.7491965738590807e-05
-8.774729212746024e-05,9.715257328934968e-05,-2.2034058929421008e-05,3.0062665246077813e-05
-9.643154771765694e-05,0.00010199814278166741,-2.6972331397701055e-05,2.659627716639079e-05
-9.910293738357723e-05,0.00010730872600106522,-2.9225613616290502e-05,2.091229362122249e-05
-9.905692422762513e-05,0.00011137827823404223,-2.6294716008123942e-05,2.0365776435937732e-05
-9.615871385904029e-05,0.00010620965622365475,-2.2727770556230098e-05,2.507502904336434e-05
-8.649368828628212e-05,8.964731387095526e-05,-2.2816624550614506e-05,2.6386525860289112e-05
-7.473497680621222e-05,7.593692134832963e-05,-2.5794188331929035e-05,2.4249246052931994e-05
-6.565987860085443e-05,7.235097291413695e-05,-2.6470226657693274e-05,2.2009247913956642e-05
-6.071447205613367e-05,7.47530793887563e-05,-2.565703289292287e-05,1.8743607142823748e-05
-6.016977204126306e-05,7.681849092477933e-05,-2.632322684803512e-05,1.852896821219474e-05
-5.3138850489631295e-05,6.946241046534851e-05,-2.7263606170890853e-05,1.9895560399163514e-05
-4.224144868203439e-05,5.6799213780323043e-05,-2.408861655567307e-05,2.055651566479355e-05
-3.715650746016763e-05,4.250247366144322e-05,-1.8881091818911955e-05,2.0730190954054706e-05
-4.411195550346747e-05,2.329536437173374e-05,-1.9157101633027196e-05,1.6715150195523165e-05
-5.5538930610055104e-05,6.294176273513585e-06,-2.677490920177661e-05,1.1341599019942805e-05
-5.718487955164164e-05,-7.072294465615414e-06,-3.352819476276636e-05,7.72658040659735e-06
-5.2778552344534546e-05,-1.4595157153962646e-05,-3.5201108403271064e-05,7.921611540950835e-06
-4.863617868977599e-05,-1.8724173060036264e-05,-3.244955587433651e-05,1.2538565897557419e-05
-4.612409611581825e-05,-2.190073428209871e-05,-2.6032799723907374e-05,2.1284195099724457e-05
-4.2103529267478734e-05,-2.3609984054928645e-05,-1.9552851881599054e-05,2.886844231397845e-05
-4.121614620089531e-05,-1.749633884173818e-05,-1.7056017895811237e-05,3.0130313461995684e-05
-4.4856198655907065e-05,-2.7788776151282946e-06,-1.8875360183301382e-05,2.8824533728766255e-05
-4.9512062105350196e-05,2.184740424127085e-06,-2.1756406567874365e-05,2.855584716598969e-05
-4.921292929793708e-05,-1.1499751963128801e-05,-2.019347266468685e-05,2.7924605092266575e-05
-4.412137786857784e-05,-2.8982432922930457e-05,-1.4273507076723035e-05,2.6378180336905643e-05
-3.814175943261944e-05,-3.6209494282957166e-05,-1.0489383384992834e-05,2.532720463932492e-05
-3.5398625186644495e-05,-3.126717638224363e-05,-1.1041359357477631e-05,2.536368447181303e-05
-3.695307896123268e-05,-1.4108621144259814e-05,-1.551902460050769e-05,2.543443588365335e-05
-3.8426442188210785e-05,9.18491423362866e-06,-1.9250368495704606e-05,2.7020096240448765e-05
-3.701342211570591e-05,2.6911809982266277e-05,-1.9916438759537414e-05,3.097221633652225e-05
-3.0392597182071768e-05,3.689132063300349e-05,-2.0175622921669856e-05,3.351328268763609e-05
-1.9683146092575043e-05,4.725953840534203e-05,-2.0611872969311662e-05,3.287644358351827e-05
-1.3319222489371896e-05,6.138252501841635e-05,-2.140798642358277e-05,3.3068306947825477e-05
-1.7884556655189954e-05,7.39255192456767e-05,-2.331749965378549e-05,3.317281880299561e-05
-2.2915148292668164e-05,6.967562512727454e-05,-2.54228671110468e-05,2.889394818339497e-05
-2.42556616285583e-05,4.4517415517475456e-05,-2.5997111151809804e-05,2.2815480406279676e-05
-2.2839431039756164e-05,1.4825422113062814e-05,-2.6972900741384365e-05,1.972191603272222e-05
-2.277975727338344e-05,-2.1125120838405564e-05,-2.7373785997042432e-05,1.930007965711411e-05
-2.8454525818233378e-05,-6.123198545537889e-05,-2.3171003704192117e-05,2.148759813280776e-05
-3.2822983484948054e-05,-6.851299258414656e-05,-1.969060394912958e-05,2.287101960973814e-05
-3.174783705617301e-05,-3.8814509025542066e-05,-2.027300070039928e-05,2.2412454200093634e-05
-3.149165058857761e-05,3.73730495084601e-06,-2.2006408471497707e-05,2.5817689675022848e-05
-3.726884096977301e-05,3.6407040170161054e-05,-2.5884113711072132e-05,2.846228744601831e-05
-4.164191341260448e-05,4.6325782022904605e-05,-2.8775672035408206e-05,2.642239815031644e-05
-4.133252514293417e-05,4.158688534516841e-05,-2.9342660127440467e-05,2.150575164705515e-05
-4.4217627873877063e-05,5.902866541873664e-05,-3.28527094097808e-05,1.956524829438422e-05
-5.418762884801254e-05,0.00010330510122003034,-3.9103342714952305e-05,1.8131042452296242e-05
-6.383375148288906e-05,0.00013595414930023253,-4.277623156667687e-05,1.741717460390646e-05
-6.809491605963558e-05,0.0001416557061020285,-4.190319305052981e-05,1.853128196671605e-05
-6.87873616698198e-05,0.0001321301533607766,-4.077282210346311e-05,2.134661735908594e-05
-6.549480895046145e-05,0.00011755250307032838,-4.036831887788139e-05,2.6097364752786234e-05
-6.148790271254256e-05,0.00010238379763904959,-3.781445775530301e-05,3.0203451387933455e-05
-6.0545160522451624e-05,8.938671817304567e-05,-3.429860225878656e-05,3.0937397241359577e-05
-6.623296212637797e-05,7.561674283351749e-05,-3.385595846339129e-05,2.8151120204711333e-05
-7.552726310677826e-05,6.692171155009419e-05,-3.792619827436283e-05,2.6412422812427394e-05
-8.237305155489594e-05,7.011721027083695e-05,-4.220157643430866e-05,2.638949990796391e-05
-8.722920756554231e-05,8.066702866926789e-05,-4.3354390072636306e-05,2.4939716240623966e-05
-9.100789611693472e-05,8.437452197540551e-05,-4.311408702051267e-05,1.9167520804330707e-05
-9.017255797516555e-05,7.888848631409928e-05,-4.2017916712211445e-05,1.562417673994787e-05
-8.193040412152186e-05,6.955074786674231e-05,-3.881141674355604e-05,1.6374997358070686e-05
-6.830215716036037e-05,5.820410297019407e-05,-3.626680336310528e-05,1.867998253146652e-05
-5.5859472922747955e-05,4.0124279621522874e-05,-3.382299473742023e-05,2.0935762222507037e-05
-4.993861875846051e-05,2.5516506866551936e-05,-3.0175928259268403e-05,2.109509841830004e-05
-4.7580684622516856e-05,2.0512241462711245e-05,-2.681207661225926e-05,2.181971285608597e-05
-4.885800808551721e-05,1.0932248187600635e-05,-2.397631760686636e-05,2.4450553610222414e-05
-4.919620550936088e-05,-1.4235165508580394e-05,-2.647689871082548e-05,2.3450777007383294e-05
-4.694853487308137e-05,-4.5128730562282726e-05,-2.9269711376400664e-05,1.871123822638765e-05
-4.6886460040695965e-05,-6.443060556193814e-05,-2.6966099540004507e-05,1.5624136722180992e-05
-4.897716280538589e-05,-7.074321911204606e-05,-2.3007969502941705e-05,1.6762196537456475e-05
-4.94490159326233e-05,-6.51486698188819e-05,-2.010642856475897e-05,1.7888154616230167e-05
-4.717947376775555e-05,-4.576833453029394e-05,-1.8572429326013662e-05,1.6574289475101978e-05
-4.824583083973266e-05,-8.70309304445982e-06,-1.8223197912448086e-05,1.3928505723015405e-05
-5.268260429147631e-05,3.081664544879459e-05,-2.2449876269092783e-05,1.5083667676663026e-05
-6.276209023781121e-05,4.703931699623354e-05,-2.7648795366985723e-05,2.084077277686447e-05
-7.362199539784342e-05,4.700372301158495e-05,-2.9253629691083916e-05,3.0068766136537306e-05
-7.945198740344495e-05,5.893252819078043e-05,-2.690282963158097e-05,3.97081566916313e-05
-7.915951573522761e-05,7.99279150669463e-05,-2.4422704882454127e-05,4.182316843071021e-05
-7.301599544007331e-05,8.259511378128082e-05,-2.1509944417630322e-05,3.552842827048153e-05
-6.236320768948644e-05,5.4338663176167756e-05,-1.9904297005268745e-05,2.740184027061332e-05
-5.0435279263183475e-05,2.0941470211255364e-06,-2.1735435439040884e-05,2.3539432731922716e-05
-4.076585537404753e-05,-5.574232272920199e-05,-2.4568957087467425e-05,2.359280188102275e-05
-3.028726132470183e-05,-8.845038973959163e-05,-2.6398829504614696e-05,2.5567709599272348e-05
-1.5008273294370156e-05,-7.211547199403867e-05,-2.6142104616155848e-05,2.7060879801865667e-05
-1.5610827404088923e-06,-1.6564476027269848e-05,-2.4855227820808068e-05,2.794279316731263e-05
-1.8819335991793196e-06,3.865034523187205e-05,-2.5640645617386326e-05,2.6049723601317964e-05
-8.062969754973892e-06,6.245974509511143e-05,-2.7963396860286593e-05,2.3112028429750353e-05
-1.2771618457918521e-05,6.434271926991642e-05,-2.603299253678415e-05,2.1508174540940672e-05
-1.6242896890616976e-05,6.309044692898169e-05,-1.9381735910428688e-05,2.300762389495503e-05
-2.1491063307621516e-05,5.147149568074383e-05,-1.5458866982953623e-05,2.8427200959413312e-05
-3.163311703247018e-05,2.5164687031065114e-05,-1.5011212781246286e-05,3.1829302315600216e-05
-4.2406070861034095e-05,-7.63127019354215e-08,-1.3634878996526822e-05,3.131919220322743e-05
-5.235095522948541e-05,-1.7397574993083254e-05,-1.6163287000381388e-05,3.2859807106433436e-05
-5.9497517213458195e-05,-9.143070201389492e-06,-2.0570312699419446e-05,3.437875784584321e-05
-6.426733307307586e-05,1.68616788869258e-05,-2.4119022782542743e-05,3.0902338039595634e-05
-6.374472286552191e-05,2.7657102691591717e-05,-2.868076990125701e-05,2.5069492039619945e-05
-5.777345722890459e-05,3.161361382808536e-05,-3.322438715258613e-05,2.34941780945519e-05
-5.2319486712804064e-05,3.6815632483921945e-05,-3.390531855984591e-05,2.575348480604589e-05
-4.582208930514753e-05,3.710251985467039e-05,-3.210506110917777e-05,2.6351075575803407e-05
-4.0544418880017474e-05,3.876080518239178e-05,-2.937483623099979e-05,2.934497933892999e-05
-3.4659606171771884e-05,5.4390478908317164e-05,-2.7688187401508912e-05,3.289415326435119e-05
-3.9104117604438215e-05,7.487478433176875e-05,-2.4117884095176123e-05,3.27200505125802e-05
-5.135317405802198e-05,8.270348189398646e-05,-2.1634552467730828e-05,2.9692333555431105e-05
-6.138366734376177e-05,7.820921746315435e-05,-2.3349666662397794e-05,2.829632103384938e-05
-6.487180507974699e-05,6.844398740213364e-05,-2.3274989871424623e-05,2.9431545044644736e-05
-6.334095814963803e-05,5.028612577007152e-05,-2.121081888617482e-05,2.8319807825027965e-05
-6.205499084899202e-05,2.722526369325351e-05,-1.9729586711036973e-05,2.3697253709542565e-05
-6.231920997379348e-05,1.4142933650873601e-05,-1.911149411171209e-05,1.8364286006544717e-05
-6.232564919628203e-05,1.7370151908835396e-05,-1.7311338524450548e-05,1.5553356206510216e-05
-5.962000068393536e-05,2.91628221020801e-05,-1.746796624502167e-05,1.2763364793499932e-05
-6.0462523833848536e-05,3.756533988052979e-05,-2.0138764739385806e-05,1.0025318260886706e-05
-6.671723531326279e-05,3.932164690922946e-05,-2.3000900910119526e-05,8.48490344651509e-06
-7.116627966752276e-05,4.0408169297734275e-05,-2.407767897238955e-05,7.77419154474046e-06
-6.688350549666211e-05,4.873693978879601e-05,-2.267310264869593e-05,8.189001164282672e-06
-6.053843753761612e-05,6.352543277898803e-05,-1.9341507140779868e-05,1.0529520295676775e-05
-5.597074778052047e-05,7.371068932116032e-05,-1.7916609067469835e-05,1.2229299500177149e-05
-5.52467281522695e-05,7.09980886313133e-05,-1.8234930394100957e-05,1.110748326027533e-05
-5.3133877372602e-05,5.912240521865897e-05,-1.7356713215122e-05,9.801478881854564e-06
-5.14025341544766e-05,4.689129491453059e-05,-1.6925512682064436e-05,1.0298906090611126e-05
-4.960385922458954e-05,4.0383038140134886e-05,-2.015006793953944e-05,9.352983397548087e-06
-4.6364908484974876e-05,3.571399429347366e-05,-2.325226341781672e-05,1.0752070011221804e-05
-4.101142621948384e-05,3.315638969070278e-05,-2.3324781068367884e-05,1.640714799577836e-05
-4.2296229366911575e-05,3.2093870686367154e-05,-2.305847556272056e-05,1.9863164197886363e-05
-5.293159119901247e-05,2.6197110855719075e-05,-2.2020149117452092e-05,2.160370240744669e-05
-5.6924764066934586e-05,1.89166657946771e-05,-1.7778107576305047e-05,2.298134859302081e-05
-5.0181308324681595e-05,7.83370796852978e-06,-1.578996489115525e-05,2.295416379638482e-05
-4.035226083942689e-05,-1.1896729120053351e-05,-1.634903128433507e-05,2.1265381292323582e-05
-3.3706994145177305e-05,-2.6668383725336753e-05,-1.595062349224463e-05,2.0247092834324576e-05
-2.739160117926076e-05,-2.639367630763445e-05,-1.5451756553375162e-05,2.126863182638772e-05
-2.0591589418472722e-05,-9.655441317590885e-06,-1.5753748812130652e-05,2.29918077820912e-05
-1.5857793187024072e-05,1.3902773389418144e-05,-1.6548941857763566e-05,2.273394784424454e-05
-1.572387554915622e-05,2.7194415451958776e-05,-1.6841524484334514e-05,2.2545027604792267e-05
-1.6525014871149324e-05,1.3028509783907793e-05,-1.708708077785559e-05,2.3352971766144037e-05
-1.3437548659567256e-05,-2.925740773207508e-05,-1.5838040781090967e-05,2.561371547926683e-05
-1.015122325043194e-05,-7.128639845177531e-05,-1.568496008985676e-05,2.7416534067015164e-05
-1.011962831398705e-05,-7.977664063218981e-05,-1.7178292182506993e-05,2.7741989470086992e-05
-9.388239959662315e-06,-4.986072963220067e-05,-1.9958017219323665e-05,2.7342397515894845e-05
-7.549759629910113e-06,1.8699202541938575e-07,-2.214561936852988e-05,2.6946738216793165e-05
-9.91602792055346e-06,5.092667925055139e-05,-2.1389998437371105e-05,2.8038699383614585e-05
-1.7277525330428034e-05,8.277395681943744e-05,-1.9712490029633045e-05,3.1512638088315725e-05
-2.7632868295768276e-05,8.665441418997943e-05,-2.1527512217289768e-05,3.527100489009172e-05
-3.736956568900496e-05,7.135756459319964e-05,-2.662705082911998e-05,3.281824683654122e-05
-4.328291834099218e-05,6.513637345051393e-05,-3.0082781449891627e-05,2.6421472284710035e-05
-5.281580160954036e-05,9.447914635529742e-05,-3.150469274260104e-05,2.2987373085925356e-05
-7.486580580007285e-05,0.00016198768571484834,-3.650688813650049e-05,2.3756318114465103e-05
-0.00010074057354358956,0.00022713142971042544,-5.008768494008109e-05,2.5141351216007024e-05
-0.00011413023457862437,0.0002347641420783475,-6.0806709370808676e-05,2.234407475043554e-05
-0.00010923720401478931,0.00018259398348163813,-5.5489930673502386e-05,1.971165693248622e-05
-9.638539631851017e-05,0.00012047376367263496,-4.701352372649126e-05,2.2088279365561903e-05
-8.905844879336655e-05,6.182516517583281e-05,-4.166944563621655e-05,2.672081427590456e-05
-8.458071533823386e-05,7.832942173990887e-06,-3.7371944927144796e-05,2.872771437978372e-05
-7.636428199475631e-05,-1.6671559933456592e-05,-3.2788921089377254e-05,2.851130375347566e-05
-6.581469642696902e-05,-2.0934661733917892e-05,-2.9972821721457876e-05,2.8210473828949034e-05
-5.957876783213578e-05,-2.502280767657794e-05,-3.137395833618939e-05,2.5129207642748952e-05
-5.720985063817352e-05,-3.150531119899824e-05,-3.322268457850441e-05,2.4408196622971445e-05
-5.518319085240364e-05,-2.9769245884381235e-05,-3.422472582315095e-05,2.680171928659547e-05
-5.0365877541480586e-05,-1.3724923519475851e-05,-3.3023752621375024e-05,3.046342681045644e-05
-4.4838936446467414e-05,1.1036175237677526e-05,-3.283263504272327e-05,3.0864797736285254e-05
-4.123418693779968e-05,3.328879029140808e-05,-3.298186857136898e-05,2.8243124688742682e-05
-4.1796483856160194e-05,4.5537912228610367e-05,-3.344392098370008e-05,2.655501702975016e-05
-4.825757787330076e-05,4.868637188337743e-05,-3.393705628695898e-05,2.7580454116105102e-05
-5.551968570216559e-05,4.779520531883463e-05,-3.4339100238867104e-05,3.0620671168435365e-05
-5.986513860989362e-05,5.1742230425588787e-05,-3.099164678133093e-05,3.289715095888823e-05
-5.8604098740033805e-05,6.208894774317741e-05,-2.473282984283287e-05,3.323044438729994e-05
-5.1318478654138744e-05,6.770261097699404e-05,-2.3414155293721706e-05,3.3675609302008525e-05
-4.200000694254413e-05,5.224957931204699e-05,-2.7505999241839163e-05,3.6514640669338405e-05
-3.75981253455393e-05,1.2694472388830036e-05,-2.9801811251672916e-05,3.804686275543645e-05
-4.005627488368191e-05,-3.116067819064483e-05,-2.7728552595363e-05,3.601770004024729e-05
-4.470193016459234e-05,-3.985481453128159e-05,-2.2957465262152255e-05,3.279947122791782e-05
-4.3856802221853286e-05,4.281516794435447e-07,-1.8154025383410044e-05,3.513242700137198e-05
-3.698542786878534e-05,5.052809137851e-05,-1.662102840782609e-05,3.91449430026114e-05
-3.4259417589055374e-05,6.484794721473008e-05,-1.8324970369576477e-05,3.680146619444713e-05
-4.233025902067311e-05,4.4783144403481856e-05,-1.9836419596686028e-05,3.204204040230252e-05
-5.878290539840236e-05,2.0127421521465294e-05,-1.776439239620231e-05,2.573437632236164e-05
-7.232300413306803e-05,1.2624937880900688e-05,-1.7477885194239207e-05,2.104360464727506e-05
-7.930546416901052e-05,2.5374276447109878e-05,-2.3354657969321124e-05,2.056847370113246e-05
-7.597733929287642e-05,3.834299059235491e-05,-2.6529447495704517e-05,1.8333797925151885e-05
-6.351912452373654e-05,4.055714816786349e-05,-2.5308028853032738e-05,1.4981324966356624e-05
-5.3636795200873166e-05,3.584760634112172e-05,-2.4797642254270613e-05,1.2920382687298115e-05
-4.3878844735445455e-05,1.9912144125555642e-05,-2.9071752578602172e-05,1.7807587937568314e-05
-3.6031917261425406e-05,1.3474502793542342e-06,-3.550699693732895e-05,2.5997194825322367e-05
-3.0338469514390454e-05,-2.8608421871467726e-06,-3.514214768074453e-05,3.171092612319626e-05
-3.0979841540101916e-05,1.9292785147229097e-09,-3.157727769576013e-05,3.016410664713476e-05
-3.452251621638425e-05,2.4747307634243043e-06,-2.7572477847570553e-05,2.3905908165033907e-05
-3.7033416447229683e-05,3.0087003324297257e-06,-2.4356409994652495e-05,1.9408806110732257e-05
-4.0149920096155256e-05,-2.4085545646812534e-06,-2.2895726942806505e-05,1.7654521798249334e-05
-4.363207335700281e-05,-1.1986600839009043e-05,-2.518773362680804e-05,1.6215342839132063e-05
-4.802488547284156e-05,-1.3364247024583165e-05,-2.728088293224573e-05,1.5405379599542357e-05
-5.217096259002574e-05,-1.1614573622864555e-06,-2.6399902708362788e-05,1.6387686628149822e-05
-5.382577364798635e-05,2.6964276912622154e-05,-2.411382411082741e-05,1.7900820239447057e-05
-5.121777576277964e-05,7.105265103746206e-05,-2.419382508378476e-05,1.845885162765626e-05
-5.0961109081981704e-05,0.00011359823838574812,-2.7845157092087902e-05,1.8518063370720483e-05
-5.155990947969258e-05,0.00013518388732336462,-3.246256892452948e-05,1.971773599507287e-05
-5.091707134852186e-05,0.0001343496551271528,-3.581762939575128e-05,1.8217067918158136e-05
-4.892498691333458e-05,0.00011410380102461204,-3.5612003557616845e-05,1.3365924132813234e-05
-4.811427788808942e-05,7.682913565076888e-05,-3.3812757465057075e-05,9.446997864870355e-06
-4.860418266616762e-05,3.8359030440915376e-05,-3.2576816010987386e-05,1.0139892765437253e-05
-4.8805715778144076e-05,1.164982677437365e-05,-3.2561081752646714e-05,1.338989932264667e-05
-4.902062937617302e-05,-1.172623160528019e-05,-3.234176620026119e-05,1.966769741557073e-05
-4.6819775889161974e-05,-3.3593951229704544e-05,-2.9640998036484234e-05,2.491179111530073e-05
-4.2176641727564856e-05,-3.5422792279860005e-05,-2.308611510670744e-05,2.4831935661495663e-05
-4.288106720196083e-05,-1.560626878926996e-05,-2.0333847714937292e-05,2.1464355086209252e-05
-4.734146568807773e-05,1.2593617611855734e-05,-2.4918314011301845e-05,2.0736515580210835e-05
-5.179270010557957e-05,2.739703268161975e-05,-2.829383265634533e-05,2.0139123080298305e-05
-5.247509034234099e-05,7.747953532089014e-06,-2.5991772417910397e-05,2.0612191292457283e-05
-5.1053801144007593e-05,-2.7582313123275526e-05,-2.404850056336727e-05,2.11722835956607e-05
-4.9177160690305755e-05,-4.099819125258364e-05,-2.3447699277312495e-05,2.0573610527208075e-05
-4.661620914703235e-05,-3.6306402762420475e-05,-2.2862912373966537e-05,2.3138412871048786e-05
-4.5092154323356226e-05,-2.9747658118139952e-05,-2.6716987122199498e-05,2.43895010498818e-05
-3.913481123163365e-05,-2.51408255280694e-05,-3.365633892826736e-05,2.2970227291807532e-05
-2.789518839563243e-05,-1.8905073375208303e-05,-3.6093162634642795e-05,1.8484237443772145e-05
-1.7122561985161155e-05,-2.2185570287547307e-06,-3.1782907171873376e-05,1.535898627480492e-05
-1.4205386833054945e-05,2.595079604361672e-05,-2.3995218725758605e-05,1.7079166354960762e-05
-1.4941903828002978e-05,5.048682214692235e-05,-1.635728585824836e-05,2.1035239115008153e-05
-1.4449180525843985e-05,5.632366082863882e-05,-1.2034375686198473e-05,2.2536469259648584e-05
-1.2953832992934622e-05,4.278455162420869e-05,-1.1659759366011713e-05,1.9141440134262666e-05
-1.9659586541820318e-05,3.1032006518216804e-05,-1.3363286598178092e-05,1.5651381545467302e-05
-3.768407623283565e-05,4.752682434627786e-05,-1.7991596905631013e-05,1.6847123333718628e-05
-5.841450547450222e-05,9.015706018544734e-05,-2.6093621272593737e-05,2.1756402929895557e-05
-7.523920794483274e-05,0.0001236083044204861,-3.594617737689987e-05,2.522169961594045e-05
-9.028645581565797e-05,0.00011686122888932005,-4.259570414433256e-05,2.793611383822281e-05
-0.00010200610995525494,8.041614637477323e-05,-4.3541276681935415e-05,3.317492883070372e-05
-0.00010437438322696835,4.977055505150929e-05,-4.404117134981789e-05,3.486595596768893e-05
-9.876702097244561e-05,4.959302532370202e-05,-4.5059405238134786e-05,3.127236050204374e-05
-9.479279106017202e-05,7.346033817157149e-05,-4.307793278712779e-05,2.7513258828548715e-05
-9.930513624567538e-05,9.682971722213551e-05,-3.882804958266206e-05,2.2181091480888426e-05
-9.847443288890645e-05,8.905735012376681e-05,-3.6547877243719995e-05,1.9325068933540024e-05
-8.985066961031407e-05,5.783626329503022e-05,-3.54740368493367e-05,2.074480289593339e-05
-7.6370793976821e-05,3.9473259676015005e-05,-3.146833478240296e-05,2.114653580065351e-05
-5.748458715970628e-05,4.087822890141979e-05,-2.7618098101811484e-05,1.9811182937701233e-05
-4.357682337285951e-05,4.7398141759913415e-05,-2.557383049861528e-05,1.7006599591695704e-05
-4.035434903926216e-05,5.094233711133711e-05,-2.38358297792729e-05,1.65544479386881e-05
-4.584046473610215e-05,4.968641223968007e-05,-2.3229331418406218e-05,1.763099317031447e-05
-4.861092020291835e-05,4.641377381631173e-05,-2.2271706257015467e-05,1.7299928003922105e-05
-4.466901737032458e-05,4.222904681228101e-05,-2.0461609892663546e-05,1.7538941392558627e-05
-3.722023393493146e-05,4.0057093428913504e-05,-1.8753906260826625e-05,1.9857056031469256e-05
-3.288382140453905e-05,5.230496026342735e-05,-1.8668315533432178e-05,2.1637650206685066e-05
-3.8164489524206147e-05,8.248972881119698e-05,-2.1181247575441375e-05,2.1938538338872604e-05
-4.7479727072641253e-05,0.00010978490172419697,-2.5082785214181058e-05,2.4424407456535846e-05
-5.2580973715521395e-05,0.00011561907740542665,-2.8487940653576516e-05,2.653717456269078e-05
-5.283368591335602e-05,0.00010153017501579598,-3.0024284569662996e-05,2.5312583602499217e-05
-5.165207039681263e-05,7.422687485814095e-05,-2.8964714147150517e-05,2.3037400751491077e-05
-4.848409298574552e-05,3.8522775867022574e-05,-2.7629574105958454e-05,2.233266059192829e-05
-4.5980068534845486e-05,3.435041890043067e-06,-2.893981582019478e-05,2.4064109311439097e-05
-4.823518611374311e-05,-1.9767056073760614e-05,-2.9790366170345806e-05,2.6207006158074364e-05
-5.6217391829704866e-05,-3.081918112002313e-05,-2.6879670258495025e-05,2.766758007055614e-05
-6.375709926942363e-05,-3.8335965655278414e-05,-2.3005441107670777e-05,2.8352911613183096e-05
-6.913149263709784e-05,-4.324509063735604e-05,-2.241973561467603e-05,2.6859228455577977e-05
-7.62514682719484e-05,-4.09700078307651e-05,-2.537719592510257e-05,2.4539407604606822e-05
-8.07727628853172e-05,-3.6942197766620666e-05,-2.8413582185748965e-05,2.2971171347307973e-05
-7.472281868103892e-05,-3.133447899017483e-05,-2.88597984763328e-05,2.1489991922862828e-05
-6.282221875153482e-05,-2.6342544515500776e-05,-2.755029890977312e-05,2.3545700969407335e-05
-5.047886224929243e-05,-3.52929018845316e-05,-2.4736356863286346e-05,3.0158986191963777e-05
-4.1828781832009554e-05,-5.142791633261368e-05,-2.2129632270662114e-05,3.774172728299163e-05
-3.9442500565201044e-05,-5.719079854316078e-05,-2.1025021851528436e-05,3.728599403984845e-05
-4.2732168367365375e-05,-4.7843637730693445e-05,-2.3681042875978164e-05,3.0472567232209258e-05
-4.5310287532629445e-05,-2.7012363716494292e-05,-2.8251528419787064e-05,2.4296512492583133e-05
-4.7170513425953686e-05,-9.8245050139667e-07,-2.9002310839132406e-05,1.8871069187298417e-05
-5.0415252189850435e-05,2.8820115403505042e-05,-2.5865689167403616e-05,1.7066313375835307e-05
-4.5817141653969884e-05,4.666749373427592e-05,-2.0082947230548598e-05,1.6984455214696936e-05
-3.7200647057034075e-05,4.0226976125268266e-05,-1.538901597086806e-05,1.7613723684917204e-05
-3.5342745832167566e-05,3.3523749152664095e-05,-1.2452118426153902e-05,1.9929726477130316e-05
-4.493897722568363e-05,4.6806992031633854e-05,-1.319324474025052e-05,2.2927588361199014e-05
-5.176397098693997e-05,6.348557508317754e-05,-1.492506817157846e-05,2.4206761736422777e-05
-5.374352622311562e-05,6.33675153949298e-05,-1.6897174646146595e-05,2.5070830815820955e-05
-5.017403600504622e-05,5.01962385897059e-05,-1.579090894665569e-05,2.6207751943729818e-05
-4.089520007255487e-05,3.825807652901858e-05,-1.1420448572607711e-05,2.7013329599867575e-05
-3.283801561337896e-05,3.391607606317848e-05,-9.751222023623995e-06,2.7054731617681682e-05
-2.820412009896245e-05,3.361658673384227e-05,-1.3344333638087846e-05,2.932790812337771e-05
-2.6922767574433237e-05,3.3003725548041984e-05,-1.9692513888003305e-05,3.550293331500143e-05
-2.7380425308365375e-05,3.395919338800013e-05,-2.234700514236465e-05,4.029360934509896e-05
-2.7360440071788616e-05,3.9965561882127076e-05,-2.027718619501684e-05,4.167317092651501e-05
-2.079753357975278e-05,5.0242913857800886e-05,-1.4827062841504812e-05,4.190581603324972e-05
-7.863355676818173e-06,6.141055200714618e-05,-9.727799806569237e-06,4.0590039134258404e-05
1.4633027944910282e-07,7.48783495509997e-05,-6.6553270698932465e-06,3.7501889892155305e-05
-4.7903945414873306e-06,8.783554949332029e-05,-6.968480192881543e-06,3.581448254408315e-05
-1.4725717846886255e-05,9.012203372549266e-05,-1.0454309631313663e-05,3.658750210888684e-05
-2.402089739916846e-05,8.059378887992352e-05,-1.761157727742102e-05,3.924178236047737e-05
-2.6798259568749927e-05,6.89356675138697e-05,-2.0783034415217116e-05,3.9870181353762746e-05
-3.107835436821915e-05,6.124022183939815e-05,-1.8982478650286794e-05,3.5841305361827835e-05
-3.9447502786060795e-05,5.224264532444067e-05,-1.9886943846358918e-05,3.162428401992656e-05
-4.4683747546514496e-05,3.5105749702779576e-05,-2.0073166524525732e-05,3.120581459370442e-05
-4.606721267919056e-05,2.279971886309795e-05,-1.9027653252123855e-05,3.0959639843786135e-05
-4.695418101618998e-05,3.324566569062881e-05,-1.8980874301632866e-05,3.05626708723139e-05
-4.80642011098098e-05,4.231678394717164e-05,-2.2248379536904395e-05,3.107555312453769e-05
-5.2532363042701036e-05,2.7242482246947475e-05,-2.819077235471923e-05,2.9796783564961515e-05
-5.313630390446633e-05,-1.119959051720798e-05,-2.947498251160141e-05,2.619832957861945e-05
-4.3839128920808434e-05,-6.674774340353906e-05,-2.885336652980186e-05,2.1472042135428637e-05
-3.596737587940879e-05,-0.00010347956413170323,-2.7861065973411314e-05,1.6606338249403052e-05
-2.7464766390039586e-05,-8.743153011891991e-05,-2.7691707146004774e-05,1.2610701560333837e-05
-1.8087645003106445e-05,-3.067910802201368e-05,-3.0028228138689883e-05,8.481702934659552e-06
-1.4461244973063003e-05,3.127308082184754e-05,-3.179685154464096e-05,6.830897291365545e-06
-2.1759236915386282e-05,7.71199629525654e-05,-2.948094333987683e-05,9.840459824772552e-06
-3.3297437767032534e-05,0.00010244575969409198,-2.6019888537121005e-05,1.4026009012013674e-05
-4.319093932281248e-05,0.00010238295362796634,-2.444410347379744e-05,1.7577214748598635e-05
-5.303103171172552e-05,7.54435604903847e-05,-2.3787217287463136e-05,2.0317460439400747e-05
-7.07680155755952e-05,4.3142637878190726e-05,-2.5544211894157343e-05,1.9639788661152124e-05
-9.518886508885771e-05,3.166527676512487e-05,-3.048959479201585e-05,1.5093859474291094e-05
-0.00011238719162065536,4.324094334151596e-05,-3.621046926127747e-05,1.0912866855505854e-05
-0.0001149429808720015,6.437020056182519e-05,-3.8627913454547524e-05,1.103203248931095e-05
-0.00010776502313092351,8.783715747995302e-05,-3.873635796480812e-05,1.279041407542536e-05
-0.00010193346679443493,0.00011153065861435607,-3.7578920455416664e-05,9.685487384558655e-06
-9.849499474512413e-05,0.0001156220241682604,-3.59891819243785e-05,5.536443040909944e-06
-9.14937409106642e-05,9.08266447368078e-05,-3.4416003472870216e-05,4.294282916816883e-06
-7.945707329781726e-05,7.045627717161551e-05,-3.521878534229472e-05,3.943068804801442e-06
-6.814249354647473e-05,6.85964769218117e-05,-3.823858787654899e-05,6.242819836188573e-06
-6.120953912613913e-05,6.291266618063673e-05,-4.03981284762267e-05,1.6614492778899148e-05
-5.507897003553808e-05,5.018983210902661e-05,-3.831208232440986e-05,3.095860665780492e-05
-4.8332378355553374e-05,4.4029304262949154e-05,-3.761427433346398e-05,3.8148216845002025e-05
-4.4685348257189617e-05,3.951137841795571e-05,-3.9860049582784995e-05,3.532780465320684e-05
-4.3864758481504396e-05,3.032159474969376e-05,-3.835937241092324e-05,2.9295239073690027e-05
-4.2307463445467874e-05,2.197280991822481e-05,-3.3887950849020854e-05,2.9601191272377037e-05
-3.984513023169711e-05,1.842026540543884e-05,-2.7970445444225334e-05,3.7155590689508244e-05
-4.040508792968467e-05,2.0329365725046955e-05,-2.3415857867803425e-05,3.716593710123561e-05
-4.241188435116783e-05,2.1066896806587465e-05,-2.2003145204507746e-05,2.644484084157739e-05
-4.346036439528689e-05,2.0247522115823813e-05,-2.3513155610999092e-05,2.149576357624028e-05
-4.3590134737314656e-05,1.9617007637862116e-05,-2.6274023184669204e-05,2.291170858370606e-05
-4.772951433551498e-05,1.7110531189246103e-05,-2.8904150894959457e-05,2.573415986262262e-05
-5.355876783141866e-05,1.720131876936648e-05,-3.140619082842022e-05,2.696234696486499e-05
-5.9477253671502694e-05,2.161041811632458e-05,-3.3207445085281506e-05,2.6388168407720514e-05
-6.414714880520478e-05,2.292249700985849e-05,-3.3501772122690454e-05,2.5517223548376933e-05
-6.448786734836176e-05,1.666310527070891e-05,-2.968419539683964e-05,2.3171716748038307e-05
-6.201658106874675e-05,1.0459868462930899e-05,-2.418457188468892e-05,2.377554847043939e-05
-5.88333496125415e-05,1.0767080311779864e-05,-1.9895018340321258e-05,2.7622972993412986e-05
-5.5858145060483366e-05,1.5249508578563109e-05,-1.8788554370985366e-05,3.1104355002753437e-05
-5.044828139944002e-05,2.0682291506091133e-05,-2.076089003821835e-05,3.0486036848742515e-05
-4.530363730737008e-05,2.4259566998807713e-05,-2.0534622308332473e-05,2.8064376238035038e-05
-4.45558107458055e-05,2.6658195565687492e-05,-1.717261147859972e-05,2.7718340788851492e-05
-4.5518125261878595e-05,3.150643897242844e-05,-1.6594032786088064e-05,2.899251558119431e-05
-4.377500226837583e-05,3.715337152243592e-05,-1.769907794368919e-05,2.694436079764273e-05
-4.326167254475877e-05,3.769578688661568e-05,-1.77821875695372e-05,2.3744314603391103e-05
-4.1280909499619156e-05,3.323563942103647e-05,-2.1004640075261705e-05,2.5338073101011105e-05
-3.51391572621651e-05,2.762251278909389e-05,-2.3318740204558708e-05,2.5138939236057922e-05
-3.4649474400794134e-05,1.6782167222118005e-05,-2.3489983504987322e-05,2.33872724493267e-05
-4.262095899321139e-05,7.74967520555947e-06,-2.5369565264554694e-05,2.482804484316148e-05
-4.877177343587391e-05,1.1134223314002156e-05,-2.6217492631985806e-05,2.3431664885720238e-05
-5.115034582559019e-05,8.95994253369281e-06,-2.7255526219960302e-05,2.2369311409420334e-05
-5.305274680722505e-05,-1.7110012777266093e-05,-2.824606781359762e-05,2.103574479406234e-05
-5.554165909416042e-05,-5.597443305305205e-05,-2.6318648451706395e-05,1.7591675714356825e-05
-5.865583079867065e-05,-8.069226169027388e-05,-2.4489678253303282e-05,1.758580947353039e-05
-5.910136678721756e-05,-7.614376954734325e-05,-2.6247767891618423e-05,2.0202092855470255e-05
-5.589544525719248e-05,-4.295785038266331e-05,-2.676914300536737e-05,2.2680344045511447e-05
-5.013674672227353e-05,2.5227004698535893e-06,-2.4848635803209618e-05,2.248752207378857e-05
-4.093056486453861e-05,4.0565919334767386e-05,-2.4238852347480133e-05,2.2136960978969e-05
-3.381105852895416e-05,5.9914091252721846e-05,-2.3886434064479545e-05,2.3700864403508604e-05
-3.4825436159735546e-05,5.946991586824879e-05,-2.6642412194632925e-05,2.7996109565719962e-05
-4.126233034185134e-05,4.6817309339530766e-05,-2.922363273683004e-05,3.1975359888747334e-05
-4.8693640565034e-05,3.231130904168822e-05,-2.844563096005004e-05,3.0506991606671363e-05
-5.656606299453415e-05,2.901419429690577e-05,-2.521123860788066e-05,2.513510116841644e-05
-6.291657336987555e-05,3.9236627344507724e-05,-2.2905222067493014e-05,2.3439379219780676e-05
-6.522261537611485e-05,5.646090357913636e-05,-2.326021422049962e-05,2.5860847017611377e-05
-6.361158011713997e-05,6.860766734462231e-05,-2.561310429882724e-05,2.8380649382597767e-05
-5.866435822099447e-05,7.073328015394509e-05,-2.833657526934985e-05,3.168838520650752e-05
-5.542960570892319e-05,6.754264904884622e-05,-2.855013735825196e-05,3.374339939909987e-05
-5.7798093621386215e-05,6.227211997611448e-05,-2.5812418243731372e-05,2.997362389578484e-05
-6.151846901047975e-05,5.405027695815079e-05,-2.4014096197788604e-05,2.21564023377141e-05
-5.404769763117656e-05,4.529217039817013e-05,-2.461684198351577e-05,1.4769262634217739e-05
-3.9323240343946964e-05,4.373559568193741e-05,-2.3944350687088445e-05,9.512143151368946e-06
-3.394122904865071e-05,5.320838317857124e-05,-2.391604721196927e-05,1.0360510714235716e-05
-3.8423328078351915e-05,7.576542702736333e-05,-2.49150070885662e-05,1.719575266179163e-05
-3.932225445169024e-05,9.849689377006143e-05,-2.3226508346851915e-05,2.0426499759196304e-05
-2.957758078991901e-05,9.825298184296116e-05,-1.9675117073347792e-05,2.208064506703522e-05
-2.074753683700692e-05,6.896494596730918e-05,-2.1308920622686855e-05,2.226727519882843e-05
-1.7486972865299322e-05,3.706119241542183e-05,-2.3909045921755023e-05,2.00617105292622e-05
-1.8258251657243818e-05,2.2141093722893856e-05,-2.2907639504410326e-05,2.1860538254259154e-05
-1.990159034903627e-05,1.67238376889145e-05,-2.154882713512052e-05,2.7115143893752247e-05
-1.986111601581797e-05,2.1241350623313338e-05,-2.0514458810794167e-05,2.9516322683775797e-05
-2.5941328203771263e-05,3.893886605510488e-05,-2.006728755077347e-05,2.5347368136863224e-05
-3.623011798481457e-05,6.532805855385959e-05,-1.8378417735220864e-05,2.2518910554936156e-05
-4.33648019679822e-05,8.789390267338604e-05,-1.9430186512181535e-05,2.1334877601475455e-05
-4.558741784421727e-05,0.00010416416625957936,-2.2299436750472523e-05,2.1149333406356163e-05
-5.139057248015888e-05,0.00011371837899787351,-2.5397574063390493e-05,2.1354560885811225e-05
-6.254696199903265e-05,0.0001059904316207394,-2.883078377635684e-05,1.9119621356367134e-05
-6.922603643033653e-05,6.341643165796995e-05,-2.84150883089751e-05,1.4321908565761987e-05
-7.046502287266776e-05,-8.423935469181743e-06,-2.6283989427611232e-05,1.1085988262493629e-05
-7.084166281856596e-05,-6.0864527767989784e-05,-2.5126475520664826e-05,1.2520312338892836e-05
-6.95867565809749e-05,-5.78975559619721e-05,-2.4943128664745018e-05,1.6422196495113894e-05
-6.504668272100389e-05,-2.0867773855570704e-05,-2.4737930289120413e-05,1.886412428575568e-05
-5.824581239721738e-05,1.6923399016377516e-05,-2.48259020736441e-05,2.0119243345106952e-05
-5.2000243158545345e-05,5.054656867287122e-05,-2.346612382098101e-05,2.263897840748541e-05
-4.713541784440167e-05,7.569993613287807e-05,-2.1123632905073464e-05,2.5586474293959327e-05
-4.631189949577674e-05,8.145558240357786e-05,-1.922906085383147e-05,2.6889669243246317e-05
-5.410042649600655e-05,6.642358493991196e-05,-1.8603252101456746e-05,2.4556708012823947e-05
-6.437204137910157e-05,3.8190933992154896e-05,-1.7221143934875727e-05,1.9461689589661546e-05
-6.848578777862713e-05,9.826793757383712e-06,-1.700034954410512e-05,1.5757263099658303e-05
-6.558136374223977e-05,-6.271547590586124e-06,-2.1199186448939145e-05,1.6052552382461727e-05
-6.307205330813304e-05,-1.610604886082001e-05,-2.593342105683405e-05,1.7434977053198963e-05
-6.376378587447107e-05,-2.6866788175539114e-05,-2.6963627533405088e-05,1.6777341443230398e-05
-6.3495353970211e-05,-3.681951784528792e-05,-2.551701618358493e-05,1.5861451174714603e-05
-6.138799653854221e-05,-3.592553184716962e-05,-2.5795574401854537e-05,1.804424937290605e-05
-5.754028825322166e-05,-2.4160432076314464e-05,-2.617159225337673e-05,2.1248060875223018e-05
-5.3883362852502614e-05,-1.118136424338445e-05,-2.4587046937085688e-05,2.4554225092288107e-05
-4.990602610632777e-05,-4.499851002037758e-06,-2.3711083485977724e-05,2.9724749765591696e-05
-4.701573197962716e-05,-3.155713784508407e-06,-2.470653816999402e-05,3.323877899674699e-05
-4.4605869334191084e-05,-1.895097625492781e-07,-2.3643169697606936e-05,2.89762992906617e-05
-4.0918523154687136e-05,3.951401140511734e-06,-2.2166850612848066e-05,2.4199778636102565e-05
-3.993933933088556e-05,-3.428670652283472e-06,-2.437853254377842e-05,2.250659053970594e-05
-4.460268610273488e-05,-2.5319877750007436e-05,-3.130796903860755e-05,2.3352806238108315e-05
-4.876287130173296e-05,-4.380688915261999e-05,-3.785095032071695e-05,2.425218372081872e-05
-4.6436547563644126e-05,-4.5599183067679405e-05,-3.886285412590951e-05,2.5925273803295568e-05
-4.40456424257718e-05,-3.068268415518105e-05,-3.482807369437069e-05,2.8998925699852407e-05
-4.70573031634558e-05,-5.327200597093906e-06,-2.9925939088570885e-05,2.9052276659058407e-05
-5.501943815033883e-05,2.4130647943820804e-05,-2.774333734123502e-05,2.5947339963749982e-05
-5.7931851188186556e-05,4.7994082706281915e-05,-2.902209416788537e-05,2.3651549781789072e-05
-5.095944652566686e-05,5.7234537962358445e-05,-3.2333766284864396e-05,2.3939866878208704e-05
-3.892959648510441e-05,5.301544297253713e-05,-3.501118044368923e-05,2.3130029148887843e-05
-3.064365591853857e-05,4.4359429011819884e-05,-3.6443827411858365e-05,1.9013556084246375e-05
-2.5997369448305108e-05,3.7951274862280115e-05,-3.5252567613497376e-05,1.4335190826386679e-05
-2.0169165509287268e-05,3.712490797624923e-05,-3.136478699161671e-05,1.4921854926797096e-05
-1.556226925458759e-05,3.856656257994473e-05,-2.680770558072254e-05,1.9217955923522823e-05
-1.8466145775164478e-05,4.334984623710625e-05,-2.420875898678787e-05,2.3826676624594256e-05
-2.3281711037270725e-05,4.659801925299689e-05,-2.2791535229771398e-05,2.730296182562597e-05
-2.5601097149774432e-05,3.351588384248316e-05,-2.2705433366354555e-05,2.8905345970997587e-05
-3.1213585316436365e-05,1.553402944409754e-05,-2.899600804084912e-05,2.47132484219037e-05
-3.794206349994056e-05,1.7239437511307187e-05,-3.751707845367491e-05,2.1216761524556205e-05
-4.572643956635147e-05,3.385603486094624e-05,-3.82918406103272e-05,2.2958203771850094e-05
-4.8558002163190395e-05,5.653707921737805e-05,-3.102545815636404e-05,2.5063665816560388e-05
-4.622503183782101e-05,7.886892854003236e-05,-2.7864507501362823e-05,2.693100213946309e-05
-4.879775224253535e-05,9.405937453266233e-05,-2.828363358275965e-05,2.5213226763298735e-05
-5.909857281949371e-05,0.00010479749471414834,-2.7541314921109006e-05,2.1297368220984936e-05
-7.263471343321726e-05,0.00011990212078671902,-3.0078695999691263e-05,2.0070941900485195e-05
-8.795563189778477e-05,0.00014592106163036078,-3.197181285941042e-05,1.9267374227638356e-05
-0.00010147980356123298,0.0001647589961066842,-2.9997987439855933e-05,2.3159091142588295e-05
-0.00010361208114773035,0.00015487728524021804,-2.5860266759991646e-05,2.9177450414863415e-05
-9.274693002225831e-05,0.00011396461195545271,-2.5714709408930503e-05,2.9851267754565924e-05
-7.756895502097905e-05,6.300345557974651e-05,-2.716579729167279e-05,2.5327084586024284e-05
-6.517134897876531e-05,2.756322646746412e-05,-2.8421205570339225e-05,1.8689494027057663e-05
-5.592356319539249e-05,1.7260490494663827e-05,-2.9411159630399197e-05,1.7478951122029684e-05
-5.0207116146339104e-05,9.714975931274239e-06,-2.9526887374231592e-05,2.2367752535501495e-05
-4.8558227717876434e-05,-1.7023694454110228e-05,-2.8801850930904038e-05,2.5546169126755558e-05
-4.735156471724622e-05,-4.481109863263555e-05,-2.8288757675909437e-05,2.2833655748399906e-05
-4.323538450989872e-05,-4.3917134462390095e-05,-2.782032242976129e-05,1.7133248547906987e-05
-3.57136050297413e-05,-1.3539261999540031e-05,-2.4876231691450812e-05,1.10731489257887e-05
-3.069416925427504e-05,2.4098982976283878e-05,-2.1687334083253518e-05,5.917252565268427e-06
-3.423330053919926e-05,5.1022125262534246e-05,-2.1549622033489868e-05,2.505248403394944e-06
-4.124956103623845e-05,5.3351090173237026e-05,-2.4038259653025307e-05,2.3470649921364384e-06
-4.125532723264769e-05,3.360335904289968e-05,-2.5035389626282267e-05,7.517383437516401e-06
-3.191015275660902e-05,1.1953149623877835e-05,-2.554991988290567e-05,1.483445430494612e-05
-2.245498944830615e-05,1.7925591237144545e-05,-2.4119941372191533e-05,1.844381222326774e-05
-2.6430279831402004e-05,7.331735832849517e-05,-2.092485192406457e-05,2.106793544953689e-05
-4.511290171649307e-05,0.00015306523710023612,-1.7713002307573333e-05,2.6480600354261696e-05
-5.966918251942843e-05,0.0001844533544499427,-1.54817862494383e-05,3.14336248266045e-05
-6.32673327345401e-05,0.00014643506438005716,-1.79023809323553e-05,3.603060031309724e-05
-6.703680264763534e-05,8.361800428247079e-05,-2.3534665160696022e-05,4.050967254443094e-05
-6.951487011974677e-05,4.024190639029257e-05,-2.5750932763912715e-05,4.016611273982562e-05
-6.93892507115379e-05,1.4691199794469867e-05,-2.1336481950129382e-05,3.7389796489151195e-05
-7.595925126224756e-05,-1.2245374819030985e-05,-1.5213186998153105e-05,3.2421754440292716e-05
-8.567575423512608e-05,-2.2845588318887167e-05,-1.4884262782288715e-05,2.6667041311156936e-05
-9.182016219710931e-05,-1.0978160389640834e-05,-1.8948192519019358e-05,2.1631729396176524e-05
-9.331964974990115e-05,9.02740521269152e-06,-2.189475708291866e-05,1.6959897038759664e-05
-8.556098327971995e-05,2.643437073857058e-05,-2.095746822305955e-05,1.4886736607877538e-05
-7.344293408095837e-05,3.0119212169665843e-05,-2.2508918846142478e-05,1.45988788062823e-05
-6.329253665171564e-05,5.9875524129893165e-06,-2.666481123014819e-05,1.6731812138459645e-05
