-1.72162563103484e-05,2.1595567886834033e-05,-1.719503961794544e-05,7.08063380443491e-05
-2.1216361346887425e-05,2.7519121431396343e-05,-2.1229900085018016e-05,7.385415665339679e-05
-2.488502832420636e-05,3.041119998670183e-05,-2.3635084289708175e-05,7.119960355339572e-05
-2.571084041846916e-05,3.053718319279142e-05,-2.1757618014817126e-05,6.643392407568172e-05
-2.523363036743831e-05,3.5170462069800124e-05,-2.061850500467699e-05,6.711127207381651e-05
-2.5032120902324095e-05,2.7505959224072285e-05,-1.8706903574639e-05,7.406010990962386e-05
-2.3711909307166934e-05,9.97584720607847e-06,-1.8684138922253624e-05,8.014561171876267e-05
-2.3833272280171514e-05,3.2695425034034997e-06,-2.17441138374852e-05,8.23037771624513e-05
-2.6003212042269297e-05,8.935666301113088e-06,-2.3512669940828346e-05,8.060002437559888e-05
-2.7159434466739185e-05,1.9124601749354042e-05,-2.2282314603216946e-05,7.713511877227575e-05
-2.7222939024795778e-05,2.7069312636740506e-05,-2.0170753487036563e-05,7.015308801783249e-05
-2.7671721909428015e-05,3.107351221842691e-05,-1.6941810827120207e-05,6.159622716950253e-05
-2.8294605726841837e-05,3.2314317650161684e-05,-1.2431270079105161e-05,5.898036033613607e-05
-2.6188148694927804e-05,3.30100956489332e-05,-8.975481250672601e-06,6.122769264038652e-05
-2.166386002500076e-05,3.28924143104814e-05,-7.086277037160471e-06,6.270300218602642e-05
-1.9149985746480525e-05,3.4751807106658816e-05,-6.684830623271409e-06,6.358566315611824e-05
-1.9971283109043725e-05,3.984603245044127e-05,-5.213877557252999e-06,6.424642924685031e-05
-2.074223812087439e-05,4.5279117330210283e-05,-3.5251955523563083e-06,6.488851795438677e-05
-2.4825390937621705e-05,4.637558231479488e-05,-5.7649726841191296e-06,6.521209434140474e-05
-3.15344768750947e-05,4.496525434660725e-05,-1.1432441169745289e-05,6.360038969432935e-05
-3.554233262548223e-05,4.941963197779842e-05,-1.4297318557510152e-05,5.904263161937706e-05
-3.470605588518083e-05,4.6209435822675005e-05,-1.3365674021770246e-05,5.752112701884471e-05
-3.1042785849422216e-05,3.084522904828191e-05,-1.4416056728805415e-05,6.197723268996924e-05
-2.98805462080054e-05,2.5594641556381248e-05,-1.6508338376297615e-05,6.484866025857627e-05
-3.209284113836475e-05,2.551936631789431e-05,-1.584813253430184e-05,6.058963845134713e-05
-3.4450702514732257e-05,1.5867070032982156e-05,-1.4676600585517008e-05,6.0032027249690145e-05
-3.3524487662361935e-05,1.384544520988129e-05,-1.5608231478836387e-05,6.691199087072164e-05
-3.532832124619745e-05,2.6284391424269415e-05,-1.7574768207850866e-05,7.47517915442586e-05
-3.8475889596156776e-05,3.571550769265741e-05,-1.680133937043138e-05,7.972044841153547e-05
-3.973217826569453e-05,3.283337355242111e-05,-1.2592801795108244e-05,7.783224282320589e-05
-4.0244587580673397e-05,2.172675885958597e-05,-7.675535925955046e-06,7.232013740576804e-05
-3.937967630918138e-05,1.9483402866171673e-05,-5.176342710910831e-06,6.974211282795295e-05
-4.034132871311158e-05,2.7546109777176753e-05,-2.5566303065716056e-06,7.307632768061012e-05
-4.1827905079117045e-05,3.731373362825252e-05,6.884550316499372e-07,7.158698281273246e-05
-4.0994644223246723e-05,4.370979513623752e-05,3.7506338230741676e-06,6.390841008396819e-05
-3.6631099646911025e-05,4.4592808990273625e-05,5.5308978517132346e-06,5.783296001027338e-05
-3.23181739076972e-05,4.188537423033267e-05,4.6803284021734726e-06,5.617040005745366e-05
-2.9092638214933686e-05,3.969508907175623e-05,2.794311740217381e-06,5.5892371165100485e-05
-2.6935718778986484e-05,3.4322212741244584e-05,2.8157271572126774e-06,5.565893297898583e-05
-2.4105307602440007e-05,2.565762770245783e-05,3.122854650428053e-06,5.83681721764151e-05
-1.9912407879019156e-05,2.1923953681834973e-05,-2.8856072731286986e-07,6.136266165412962e-05
-1.7764989024726674e-05,2.6259294827468693e-05,-6.204143119248329e-06,6.124439096311107e-05
-1.9741857613553293e-05,3.5800465411739424e-05,-9.114553904510103e-06,5.916157897445373e-05
-2.3412470909534022e-05,4.5504777517635375e-05,-8.01638361735968e-06,5.9080466598970816e-05
-2.3056576537783258e-05,4.054843884659931e-05,-7.3402284215262625e-06,6.248617864912376e-05
-2.125431456079241e-05,2.732849861786235e-05,-5.658904683514265e-06,7.037736941128969e-05
-2.1797732188133523e-05,3.033918619621545e-05,-4.526916654867819e-06,7.612121407873929e-05
-1.9477360183373094e-05,3.734160782187246e-05,-5.662146122631384e-06,7.467303657904267e-05
-1.363451337965671e-05,3.6018383980263025e-05,-6.934994871699018e-06,6.9252542743925e-05
-1.3263359505799599e-05,3.303741686977446e-05,-9.641436918172985e-06,6.532651605084538e-05
-1.963201975740958e-05,3.16678560920991e-05,-1.53187575051561e-05,7.041063508950174e-05
-2.0864554244326428e-05,3.3065633033402264e-05,-1.6167690773727372e-05,7.380915485555306e-05
-1.9330787836224772e-05,3.157559331157245e-05,-1.1196386367373634e-05,6.861489964649081e-05
-1.8902226656791754e-05,2.1188223399803974e-05,-8.850994163367432e-06,6.631419819314033e-05
-1.966781019291375e-05,1.5250803699018434e-05,-1.1745609299396165e-05,6.441367440856993e-05
-2.320608837180771e-05,1.4177987395669334e-05,-1.5593845091643743e-05,6.52635280857794e-05
-2.4202985514421016e-05,6.070496965548955e-06,-1.873259861895349e-05,6.86410057824105e-05
-2.3757576855132356e-05,-7.276020824065199e-06,-2.337678597541526e-05,6.800748815294355e-05
-2.0992503777961247e-05,-1.8543980331742205e-05,-2.6538091333350167e-05,6.233957537915558e-05
-1.9777511624852195e-05,-2.6872266971622594e-05,-2.6004297978943214e-05,5.559184501180425e-05
-2.1647259927704e-05,-2.110105378960725e-05,-2.5143479433609173e-05,5.2247971325414255e-05
-2.371574919379782e-05,-4.443445789092948e-07,-2.5544701202306896e-05,5.49666365259327e-05
-2.304303052369505e-05,1.7113954527303576e-05,-2.4560586098232307e-05,5.812597009935416e-05
-2.1363111954997294e-05,2.0753766875714064e-05,-2.0928968297084793e-05,5.7743229262996465e-05
-2.3188023988041095e-05,2.2604204787057824e-05,-1.6499612684128806e-05,5.6326909543713555e-05
-2.7801857868325897e-05,2.8996462788200006e-05,-1.3242355635156855e-05,5.563363083638251e-05
-3.070122329518199e-05,3.693329563247971e-05,-1.2129817150707822e-05,5.804038664791733e-05
-3.158713298034854e-05,3.733936318894848e-05,-1.3439283065963537e-05,5.888169471290894e-05
-3.1757641409058124e-05,2.27163836825639e-05,-1.4190489309839904e-05,5.4783409723313525e-05
-3.068945443374105e-05,4.374786385596963e-06,-1.1279548743914347e-05,5.0620048568816856e-05
-2.921321356552653e-05,-6.784075594623573e-07,-8.657551006763242e-06,5.1441802497720346e-05
-2.9274604457896203e-05,5.996649178996449e-06,-1.054348103934899e-05,5.127095937496051e-05
-3.281998579041101e-05,1.1251731848460622e-05,-1.2405335837684106e-05,4.808405719813891e-05
-3.380365524208173e-05,1.765874731063377e-05,-1.1916727089555934e-05,4.644487125915475e-05
-2.944625521195121e-05,1.5382862329715863e-05,-1.0560785995039623e-05,4.830857506021857e-05
-2.191942257923074e-05,1.1359762538631912e-05,-7.593153441121103e-06,4.914576857117936e-05
-1.8001366697717458e-05,1.6120880900416523e-05,-6.270502581173787e-06,5.076740853837691e-05
-2.2246425942284986e-05,2.626602326927241e-05,-9.916265298670623e-06,5.0099362852051854e-05
-3.079366069869138e-05,2.907120688178111e-05,-1.2480437362683006e-05,5.154245809535496e-05
-3.46113920386415e-05,1.9273011275799945e-05,-1.1769471711886581e-05,5.509436232387088e-05
-3.1808063795324415e-05,1.0587491487967782e-05,-1.0499695235921536e-05,5.610847074422054e-05
-2.9612923754029907e-05,1.589339444763027e-05,-1.2589705875143409e-05,5.682192568201572e-05
-2.7294072424410842e-05,2.8657586881308816e-05,-1.631230588827748e-05,5.352743755793199e-05
-2.188211328757461e-05,3.2628478948026896e-05,-1.6867748854565434e-05,4.954283213010058e-05
-1.5705763871665113e-05,3.341355113661848e-05,-1.4906490832800046e-05,4.9667287385091186e-05
-1.2044833056279458e-05,3.7748930481029674e-05,-8.493908353557345e-06,5.3603958804160357e-05
-1.3161288734409027e-05,3.9803497202228755e-05,-2.5321785415144404e-06,5.3644216677639633e-05
-1.906297984533012e-05,3.236768679926172e-05,-2.616654001030838e-06,4.9988069804385304e-05
-2.495305670890957e-05,1.8020267816609703e-05,-1.011727363220416e-05,4.516066474025138e-05
-2.8618978831218556e-05,1.2109867384424433e-05,-1.9616109057096764e-05,4.301696390029974e-05
-3.128101889160462e-05,1.691361831035465e-05,-2.5978568373830058e-05,4.3520587496459484e-05
-3.279791781096719e-05,2.0419744032551534e-05,-2.6217534468742087e-05,4.51719097327441e-05
-3.1987841794034466e-05,1.6759569916757755e-05,-2.1445790480356663e-05,4.8185560444835573e-05
-2.8530934287118725e-05,1.824488936108537e-05,-1.561663520988077e-05,5.209261507843621e-05
-2.5307979740318842e-05,3.0299312129500322e-05,-1.2129935385019053e-05,5.456226062960923e-05
-2.355350079596974e-05,3.915450724889524e-05,-1.2383083230815828e-05,5.6361484894296154e-05
-2.2114110834081657e-05,3.535695213940926e-05,-1.1016773896699306e-05,5.615673217107542e-05
-2.0032897737110034e-05,2.3857333872001618e-05,-8.001834430615418e-06,5.442149631562643e-05
-2.0497627701843157e-05,1.2399444131006021e-05,-5.650754701491678e-06,5.5362441344186664e-05
-2.2941731003811583e-05,8.02338672656333e-06,-3.5367722830415005e-06,5.5752294429112226e-05
-2.4595869035692886e-05,4.758951035910286e-06,-2.06312824957422e-06,5.372566738515161e-05
-2.811635931720957e-05,-8.094234544842038e-06,-4.082792656845413e-06,5.294545189826749e-05
-3.3935382816707715e-05,-1.8554021153249778e-05,-4.771691692440072e-06,5.800975486636162e-05
-3.637379268184304e-05,-1.3087149454804603e-05,-2.464231329213362e-06,5.8756770158652216e-05
-3.414618186070584e-05,-1.995026877921191e-06,-3.966798431065399e-06,5.3809970268048346e-05
-3.25942128256429e-05,1.6353039882233134e-06,-6.090053375373827e-06,5.052030610386282e-05
-3.178705810569227e-05,1.1768738659156952e-05,-3.5451125768304337e-06,4.9257469072472304e-05
-2.9137754609109834e-05,3.075817585340701e-05,-4.332370281190379e-06,4.890754644293338e-05
-2.5663130145403557e-05,4.632458512787707e-05,-7.606784492963925e-06,5.080594200990163e-05
-2.000970380322542e-05,5.559294004342519e-05,-4.49157732873573e-06,5.336704998626374e-05
-1.4637576896348037e-05,5.8464811445446685e-05,3.5584841953095747e-06,5.993061495246366e-05
-1.407445870427182e-05,6.0563121223822236e-05,8.182707460946403e-06,6.497103458968922e-05
-1.5492940292460844e-05,6.649384886259213e-05,5.966248863842338e-06,6.356945232255384e-05
-1.6337102351826616e-05,6.595513696083799e-05,3.7083316328789806e-06,5.9827943914569914e-05
-1.6434494682471268e-05,5.980125206406228e-05,7.011707566562109e-06,5.423648690339178e-05
-1.8162068954552524e-05,5.0603473937371746e-05,1.3085199498164002e-05,5.179262734600343e-05
-2.080069316434674e-05,3.6341705708764493e-05,1.639861693547573e-05,5.350668288883753e-05
-1.956430060090497e-05,2.388609391346108e-05,1.534950024506543e-05,5.7636541896499693e-05
-1.5729106962680817e-05,1.8553890186012723e-05,9.652470907894894e-06,5.8367702877148986e-05
-1.6011297702789307e-05,2.1670461137546226e-05,3.4096831313945586e-06,5.793395030195825e-05
-2.0995477825636044e-05,2.954267074528616e-05,1.891065863901531e-07,5.813522875541821e-05
-2.5066723537747748e-05,3.385007585166022e-05,-3.071249466302106e-06,5.628104554489255e-05
-2.5022820409503765e-05,3.453165481914766e-05,-7.810614079062361e-06,5.5043248721631244e-05
-2.3390402930090204e-05,3.4825989132514223e-05,-1.0561544513620902e-05,5.526137465494685e-05
-2.554409184085671e-05,2.925284206867218e-05,-1.1491816621855833e-05,5.268220047582872e-05
-3.035824920516461e-05,1.609326500329189e-05,-1.3289087291923352e-05,5.021811739425175e-05
-3.146209928672761e-05,7.879558324930258e-06,-1.4358167391037568e-05,4.975554838893004e-05
-2.7727654014597647e-05,9.283748113375623e-06,-1.2382784007058945e-05,5.016830255044624e-05
-2.798430978145916e-05,9.486058843322098e-06,-1.0319706234440673e-05,5.416292333393358e-05
-3.367585668456741e-05,1.194221022160491e-05,-1.2297961802687496e-05,5.913109998800792e-05
-3.535526047926396e-05,1.2830789273721166e-05,-1.502069972048048e-05,5.967016477370635e-05
-3.199419370503165e-05,1.162032162937976e-06,-1.5180067748588044e-05,6.063631008146331e-05
-3.25712317135185e-05,-1.5154718312260229e-05,-1.3937991752754897e-05,6.56370903016068e-05
-3.558647586032748e-05,-2.155955007765442e-05,-1.3664665857504588e-05,6.583741924259812e-05
-3.440205182414502e-05,-7.887381798354909e-06,-1.4357561667566188e-05,6.391647184500471e-05
-3.399352863198146e-05,1.4248638763092458e-05,-1.5895357137196697e-05,6.385109008988366e-05
-3.3894866646733135e-05,3.130088953184895e-05,-1.662127033341676e-05,6.5833970438689e-05
-2.9880107831559144e-05,4.069724673172459e-05,-1.3850209143129177e-05,6.929995288373902e-05
-2.3034270270727575e-05,3.74709015886765e-05,-1.157606402557576e-05,7.228465256048366e-05
-2.0320792827988043e-05,3.547359665390104e-05,-1.068569235940231e-05,7.611801993334666e-05
-2.2692051061312668e-05,4.2243853386025876e-05,-8.259494279627688e-06,7.872981223044917e-05
-2.7115500415675342e-05,5.135712490300648e-05,-5.542670805880334e-06,7.706069300184026e-05
-2.8246646252227947e-05,5.767833499703556e-05,-5.401930138759781e-06,7.20090392860584e-05
-2.598134415165987e-05,5.114819941809401e-05,-5.886463895876659e-06,6.951443356228992e-05
-2.4923190721892752e-05,3.291017492301762e-05,-6.295923412835691e-06,7.007211388554424e-05
-2.517627945053391e-05,2.0400007997523062e-05,-8.569601959607098e-06,7.068900595186278e-05
-2.4378725356655195e-05,1.7124197256634943e-05,-9.789518117031548e-06,6.987679080339149e-05
-2.1046613255748525e-05,1.5574150893371552e-05,-6.75220690027345e-06,6.848722114227712e-05
-2.026498259510845e-05,9.021548066812102e-06,-3.0114529181446414e-06,6.794324872316793e-05
-2.1665622625732794e-05,-2.9251054911583196e-06,-2.7736516585719073e-06,6.80070006637834e-05
-2.2126476324046962e-05,-1.4738270692760125e-05,-5.150011475052452e-06,6.804359873058274e-05
-2.374437463004142e-05,-2.4014943846850656e-05,-7.020951215963578e-06,6.823119474574924e-05
-2.916531047958415e-05,-2.6553232601145282e-05,-7.520710823882837e-06,6.705994746880606e-05
-3.186157482559793e-05,-1.645997144805733e-05,-1.0188859050686006e-05,6.216519250301644e-05
-2.9968161470605992e-05,2.26397673941392e-06,-1.6293968656100333e-05,5.5891632655402645e-05
-2.850305099855177e-05,1.3572464013122953e-05,-2.2521915525430813e-05,5.59503969270736e-05
-2.613417564134579e-05,2.0930801838403568e-05,-2.1014098820160143e-05,6.511176616186276e-05
-2.3739339667372406e-05,4.03535486839246e-05,-1.4408982679015025e-05,6.856521213194355e-05
-2.850237251550425e-05,5.692681224900298e-05,-7.799930244800635e-06,6.521000614156947e-05
-3.727475996129215e-05,5.387606506701559e-05,-4.207354322716128e-06,6.753749767085537e-05
-3.9574431866640225e-05,5.061511183157563e-05,-9.36957530939253e-06,6.74919065204449e-05
-3.38544778060168e-05,6.5219312091358e-05,-1.7745511286193505e-05,6.223771197255701e-05
-3.072950858040713e-05,9.011404472403228e-05,-2.4082657546387054e-05,5.9624220739351586e-05
-3.6547065974446014e-05,9.538410813547671e-05,-2.5748100597411394e-05,5.874081762158312e-05
-3.897431452060118e-05,7.458833715645596e-05,-2.490592305548489e-05,5.590408181888051e-05
-3.4218912333017215e-05,4.5113745727576315e-05,-1.9794875697698444e-05,5.3213956562103704e-05
-3.099231616943143e-05,2.2839949451736175e-05,-1.2096058526367415e-05,5.706481169909239e-05
-2.8207266950630583e-05,1.6358057109755464e-05,-9.197233339364175e-06,6.29978021606803e-05
-2.7199810574529693e-05,1.8329905287828296e-05,-1.1947127859457396e-05,6.517843576148152e-05
-2.7032239813706838e-05,2.1700747311115265e-05,-1.6958108972175978e-05,6.233905151020736e-05
-2.7303347451379523e-05,2.3366625100607052e-05,-2.0034898625453934e-05,5.943111318629235e-05
-2.850503005902283e-05,2.3443242753273807e-05,-1.912405605253298e-05,5.9366971981944516e-05
-2.6516474463278428e-05,2.273219797643833e-05,-1.5044141946418677e-05,6.004925671732053e-05
-1.9807155695161782e-05,2.0303712517488748e-05,-1.2524328667495865e-05,6.064730405341834e-05
-1.4608518540626392e-05,2.220232090621721e-05,-1.2101118045393378e-05,6.18147969362326e-05
-1.5997256923583336e-05,2.9460194127750583e-05,-1.315208737651119e-05,6.206711259437725e-05
-1.9508477635099553e-05,3.0375276764971204e-05,-1.1601135156524833e-05,6.039779691491276e-05
-2.2302896468318067e-05,2.1721194571000524e-05,-8.385241017094813e-06,5.920785042690113e-05
-2.3122798666008748e-05,1.0569799087534193e-05,-8.671525392855983e-06,5.592984234681353e-05
-2.094762930937577e-05,5.0765547712217085e-06,-1.252282800123794e-05,5.2446663175942376e-05
-1.8317381545784883e-05,1.2975933714187704e-05,-1.4401142834685743e-05,5.343751035979949e-05
-1.806251020752825e-05,2.2253900169744156e-05,-1.376273576170206e-05,5.538147161132656e-05
-1.935356885951478e-05,2.1221330825937912e-05,-1.3767133168585133e-05,5.4961452406132594e-05
-2.3827913537388667e-05,1.9449666069704108e-05,-1.3523956113203894e-05,5.3887692047283053e-05
-2.883156412281096e-05,1.5119134332053363e-05,-1.0539617505855858e-05,5.012673864257522e-05
-3.2681167795090005e-05,1.0123078936885577e-05,-4.790021193912253e-06,4.7873334551695734e-05
-3.0597489967476577e-05,1.1403666576370597e-05,-4.002375590062002e-06,4.672925206250511e-05
-2.4590688553871587e-05,1.5441642972291447e-05,-5.730978500650963e-06,4.312768214731477e-05
-2.2359186914400198e-05,2.4782557375147007e-05,-5.083381438453216e-06,4.196849840809591e-05
-2.1190291590755805e-05,3.143955473206006e-05,-3.5942744034400675e-06,4.252542930771597e-05
-2.0925999706378207e-05,3.346196172060445e-05,-2.6052628072648076e-06,4.379248639452271e-05
-2.216680695710238e-05,3.18919810524676e-05,-6.155629307613708e-06,4.712767986347899e-05
-2.247554402856622e-05,2.2841169993625954e-05,-1.0074469173559919e-05,4.975471892976202e-05
-2.330938514205627e-05,2.0609493731171824e-05,-1.045252247422468e-05,4.8934547521639615e-05
-2.274098551424686e-05,2.6016907213488594e-05,-7.945214747451246e-06,4.5225413487059996e-05
-1.88102712854743e-05,3.5518834920367226e-05,-5.7219917835027445e-06,4.287103729438968e-05
-1.778530713636428e-05,3.954778367187828e-05,-5.277936452330323e-06,4.675994932767935e-05
-2.1899375497014262e-05,3.1927676900522783e-05,-5.281208359519951e-06,5.347875048755668e-05
-2.2443560737883672e-05,2.239028617623262e-05,-5.475986199598992e-06,5.873955160495825e-05
-1.605715078767389e-05,2.0462193788262084e-05,-5.258666533336509e-06,6.3566149037797e-05
-1.207012428494636e-05,2.3267941287485883e-05,-3.9540282159578055e-06,6.810865306761116e-05
-1.6202006008825265e-05,2.419643715256825e-05,2.875183099604328e-06,7.28217710275203e-05
-2.133408997906372e-05,2.255498111480847e-05,9.657535883889068e-06,7.610439934069291e-05
-2.0139232219662517e-05,1.8707814888330176e-05,6.05105196882505e-06,7.67410674598068e-05
-1.8313283362658694e-05,1.8415528757032007e-05,-4.528456884145271e-06,7.368725346168503e-05
-2.0554249203996733e-05,2.3854658138589002e-05,-1.1982314390479587e-05,6.915586709510535e-05
-2.4806986402836628e-05,2.471162224537693e-05,-1.5420069757965393e-05,6.658598431386054e-05
-2.9987493689986877e-05,1.4534833098878153e-05,-1.711992263153661e-05,6.376938836183399e-05
-3.228935383958742e-05,5.2788714128837455e-06,-1.7728556485963054e-05,6.019815555191599e-05
-2.782452793326229e-05,1.4864110653434182e-06,-1.689197597443126e-05,5.745656380895525e-05
-2.2172478566062637e-05,-7.921244673525507e-07,-1.3944009879196528e-05,5.6174561905208975e-05
-1.9019864339497872e-05,-1.81498990059481e-06,-7.688970981689636e-06,5.751899516326375e-05
-1.832717316574417e-05,2.4563282750023063e-06,-2.192839929193724e-06,5.994318053126335e-05
-2.0786916138604283e-05,1.5668025298509747e-05,6.97163642371379e-08,5.938101458013989e-05
-2.5083871150854975e-05,2.8088838007533923e-05,-2.179892135245609e-06,5.488454189617187e-05
-2.7935484467889182e-05,3.085754724452272e-05,-9.104489436140284e-06,5.446736395242624e-05
-2.7679330742103048e-05,3.447384005994536e-05,-1.4612150152970571e-05,5.813365351059474e-05
-2.8895381547044963e-05,4.595579957822338e-05,-1.8550563254393637e-05,5.77905957470648e-05
-2.9276729037519544e-05,5.3926782129565254e-05,-1.9350381990079768e-05,5.620576848741621e-05
-2.7821013645734638e-05,5.054720531916246e-05,-1.7749893231666647e-05,5.59027939743828e-05
-2.903747372329235e-05,4.114532202947885e-05,-1.892319596663583e-05,5.772457006969489e-05
-3.066484714508988e-05,3.138238753308542e-05,-2.1625937733915634e-05,5.959240661468357e-05
-2.943803156085778e-05,2.97274709737394e-05,-1.9197372239432298e-05,5.916304144193418e-05
-2.810389742080588e-05,2.5258163077523932e-05,-1.361622071271995e-05,5.515981320058927e-05
-3.021813608938828e-05,8.021794201340526e-06,-1.2372636774671264e-05,4.8131369112525135e-05
-3.0346245694090612e-05,-7.211180673039053e-06,-1.7181168004754e-05,4.341092790127732e-05
-2.7630296244751662e-05,-4.179127699899254e-06,-2.3796183086233214e-05,4.4410779082681984e-05
-2.5533190637361258e-05,1.0333046702726278e-05,-2.7900618079002015e-05,4.809530219063163e-05
-2.315188612556085e-05,2.1926760382484645e-05,-2.7448510081740096e-05,4.904884917777963e-05
-2.058421159745194e-05,2.508908073650673e-05,-2.328933624085039e-05,4.597141014528461e-05
-2.1337713405955583e-05,2.3701510144746862e-05,-2.2341349904309027e-05,4.321738379076123e-05
-2.3565533410874195e-05,2.501550807210151e-05,-2.6142832211917266e-05,4.4979813537793234e-05
-2.373423194512725e-05,2.987045081681572e-05,-2.559346285124775e-05,4.738143979921006e-05
-2.5498393370071426e-05,3.4326589229749516e-05,-1.8689399439608678e-05,4.666739914682694e-05
-2.831053097906988e-05,3.505015774862841e-05,-1.4452684808929916e-05,4.6465007471852005e-05
-2.8689606551779434e-05,3.920560629921965e-05,-1.4376280887518078e-05,4.890732452622615e-05
-2.583977948233951e-05,5.0428734539309517e-05,-1.424518177373102e-05,4.853467908105813e-05
-2.4525619664927945e-05,6.544285861309618e-05,-1.4755734810023569e-05,4.941277074976824e-05
-2.8220862077432685e-05,7.794976409059018e-05,-1.2597899512911681e-05,5.333698936738074e-05
-3.225744148949161e-05,8.428443834418431e-05,-1.0790354281198233e-05,5.686466101906262e-05
-3.253564136684872e-05,7.733076199656352e-05,-1.5740351955173537e-05,5.895774665987119e-05
-2.879924613807816e-05,5.658833833876997e-05,-2.005014721362386e-05,5.6938886700663716e-05
-2.31229278142564e-05,2.610043520689942e-05,-1.8498749341233633e-05,5.6945504184113815e-05
-2.0941828552167863e-05,-2.4599701191618806e-06,-1.26018076116452e-05,5.739624975831248e-05
-2.234311068605166e-05,-1.2556422007037327e-05,-5.151281129656127e-06,5.758163024438545e-05
-2.372913331782911e-05,-8.002422873687465e-06,-9.134354286288726e-07,5.7156292314175516e-05
-2.5552368242642842e-05,2.3714419512543827e-06,-4.258138233126374e-06,5.679709283867851e-05
-2.4158807718777098e-05,9.251913979824167e-06,-7.840896614652593e-06,5.8636709582060575e-05
-2.155738911824301e-05,6.314865458989516e-06,-6.7332666731090285e-06,6.110552203608677e-05
-2.083025174215436e-05,6.451157332776347e-06,-2.4736636987654492e-06,6.565260991919786e-05
-1.9452121705398895e-05,1.710205469862558e-05,4.072266619914444e-06,7.360362360486761e-05
-1.7760849004844204e-05,3.067276702495292e-05,6.706888143526157e-06,8.014923514565453e-05
-1.869149855338037e-05,3.414754246477969e-05,2.798223704303382e-06,7.874572474975139e-05
-2.1190608094912022e-05,3.042207026737742e-05,-3.1231620596372522e-06,7.557875505881384e-05
-2.411138848401606e-05,2.7755268092732877e-05,-5.398986104410142e-06,7.617376832058653e-05
-2.5157007257803343e-05,3.438994099269621e-05,-5.448035608424107e-06,7.91177008068189e-05
-2.1118215954629704e-05,4.8461581172887236e-05,-7.231128620333038e-06,7.79609035816975e-05
-1.480728042224655e-05,5.043004784965888e-05,-9.672884516476188e-06,7.094821194186807e-05
-1.3833265256835148e-05,3.2239811844192445e-05,-8.536816494597588e-06,6.36471449979581e-05
-1.9800549125648104e-05,1.1669948435155675e-05,-6.569995548488805e-06,6.172052962938324e-05
-2.7999045414617285e-05,6.253733317862498e-07,-6.5807121245597955e-06,6.294419290497899e-05
-3.348835161887109e-05,4.049692051921738e-06,-4.109310793865006e-06,6.449689681176096e-05
-3.4242504625581205e-05,1.7262371329707094e-05,2.2771066596760647e-06,6.63823084323667e-05
-3.34827127517201e-05,2.4399018002441153e-05,5.525720553123392e-06,6.515373388538137e-05
-3.280786404502578e-05,2.1431565983220935e-05,3.0120725114102243e-06,6.184697849676013e-05
-3.4528773539932445e-05,1.3123571079631802e-05,-7.132236987672513e-07,6.137912714621052e-05
-3.519986057654023e-05,9.316654541180469e-06,-4.703111244452884e-06,6.37855555396527e-05
-3.72168688045349e-05,7.417565939249471e-06,-7.806262146914378e-06,6.660255166934803e-05
-3.864125028485432e-05,7.991789971129037e-06,-9.48924571275711e-06,6.369784387061372e-05
-3.8239119021454826e-05,4.966366304870462e-06,-6.50139600111288e-06,5.5388434702763334e-05
-3.735997961484827e-05,6.6404832068656106e-06,-5.141816018294776e-06,4.620257823262364e-05
-3.69857698387932e-05,1.6125077308970504e-05,-9.169401891995221e-06,4.257513865013607e-05
-3.431214645388536e-05,2.023492743319366e-05,-1.2055573279212695e-05,4.583623740472831e-05
-2.9988514143042266e-05,2.0510107788140886e-05,-1.2867270925198682e-05,4.76577079098206e-05
-2.8188867872813717e-05,2.2812104361946695e-05,-8.189026630134322e-06,4.96580105391331e-05
-2.5604244001442567e-05,1.9023596905753948e-05,-5.752186552854255e-06,5.192377284402028e-05
-2.514460720703937e-05,1.3918653166911099e-05,-1.0528393431741279e-05,5.234092168393545e-05
-2.5430979803786613e-05,1.8525821360526606e-05,-1.3473714716383256e-05,5.269896792015061e-05
-2.7198093448532745e-05,2.5740819182829e-05,-1.0313916391169187e-05,5.595943002845161e-05
-2.8492911951616406e-05,2.762153417279478e-05,-8.919561878428794e-06,6.037999992258847e-05
-2.800753827614244e-05,2.850020791811403e-05,-1.2884594980278052e-05,6.283814582275227e-05
-2.6944800993078388e-05,3.13509808620438e-05,-1.813777635106817e-05,6.625320384046063e-05
-2.6988553145201877e-05,3.432713128859177e-05,-2.1591235054074787e-05,7.146041753003374e-05
-2.8674285204033367e-05,3.8174675864866003e-05,-2.0329402104835026e-05,7.379607995972037e-05
-3.169538467773236e-05,3.34873802785296e-05,-1.4018641195434611e-05,7.547825953224674e-05
-3.493178519420326e-05,1.7143604054581374e-05,-7.902908691903576e-06,7.582296530017629e-05
-3.454501711530611e-05,2.9050033845123835e-06,-6.185895017551957e-06,6.950435636099428e-05
-3.0040568162803538e-05,-5.066723588242894e-06,-6.480240699602291e-06,6.24821987003088e-05
-2.6381565476185642e-05,-1.1281384104222525e-05,-8.071123374975286e-06,6.039671279722825e-05
-2.659242454683408e-05,-1.527189670014195e-05,-1.1846146662719548e-05,6.1873892263975e-05
-2.5617733626859263e-05,-2.0205572582199238e-05,-1.5516667190240696e-05,6.380896229529753e-05
-2.106610918417573e-05,-1.5241232176776975e-05,-1.3673041394213215e-05,6.16691613686271e-05
-1.4663718502561096e-05,1.860613906501385e-06,-8.226495083363261e-06,5.5301472457358614e-05
-1.5635481759090908e-05,1.4429180737351999e-05,-4.708168034994742e-06,5.078014510218054e-05
-2.2382784663932398e-05,1.5012937183200847e-05,-8.283142051368486e-06,5.0332779210293666e-05
-2.458057861076668e-05,8.759405318414792e-06,-1.6481310012750328e-05,5.039012830820866e-05
-2.337014848308172e-05,7.747605195618235e-06,-1.902712756418623e-05,5.465983122121543e-05
-2.0402441805345006e-05,2.9002161682001315e-05,-1.629943653824739e-05,6.0292088164715096e-05
-1.8559212549007498e-05,6.036319973645732e-05,-1.4835189176665153e-05,5.6597404181957245e-05
-1.897810034279246e-05,7.593340706080198e-05,-1.524455365142785e-05,4.625663495971821e-05
-2.2554573661182076e-05,6.945012137293816e-05,-1.7199652575072832e-05,4.009886470157653e-05
-2.737688373599667e-05,5.888076702831313e-05,-1.596942456671968e-05,4.570182500174269e-05
-2.9263546821312048e-05,5.1080707635264844e-05,-1.1186318261025008e-05,5.4214524425333366e-05
-2.8085993108106777e-05,4.439967960934155e-05,-7.748466487100814e-06,5.650467210216448e-05
-2.8181199013488367e-05,4.4007425458403304e-05,-2.978021711896872e-06,5.5717333452776074e-05
-3.118544555036351e-05,5.0368282245472074e-05,4.9437867346568964e-06,5.633967884932645e-05
-3.288706284365617e-05,5.769967901869677e-05,9.168915312329773e-06,6.069542359909974e-05
-3.0960127332946286e-05,6.0959919210290536e-05,7.624788395332871e-06,6.500760355265811e-05
-2.80311669484945e-05,5.744876398239285e-05,1.3983986946186633e-06,6.320786633295938e-05
-2.8513015422504395e-05,5.1898543460993096e-05,-6.388008841895498e-06,6.000253415550105e-05
-3.2099036616273224e-05,5.141585643286817e-05,-9.280773156206124e-06,6.295467755990103e-05
-3.443193418206647e-05,5.244991189101711e-05,-5.4869396990397945e-06,6.850690260762349e-05
-3.19016762659885e-05,4.816918954020366e-05,4.36482736176913e-07,6.929941446287557e-05
-2.8670912797679193e-05,3.697555075632408e-05,1.3232204310043016e-07,6.5379666921217e-05
-2.5838142391876318e-05,3.0099356081336737e-05,-4.737230483442545e-06,6.065928391763009e-05
-2.1767144062323496e-05,2.9015329346293584e-05,-8.389684808207676e-06,5.8199446357320994e-05
-1.8211620044894516e-05,3.06095062114764e-05,-8.137962140608579e-06,5.5774609791114926e-05
-1.763903310347814e-05,2.3102835257304832e-05,-6.556986591021996e-06,5.3074378229212016e-05
-2.057401252386626e-05,5.635314209939679e-06,-5.904847512283595e-06,5.075856824987568e-05
-2.9754886782029644e-05,-5.471092663356103e-06,-6.1748364714731e-06,4.658331090467982e-05
-3.90203385904897e-05,-2.453183924444602e-06,-1.2280655028007459e-05,4.35175679740496e-05
-3.673661558423191e-05,8.923169843910728e-06,-1.600458926986903e-05,4.3959651520708576e-05
-2.8433905754354782e-05,9.370717634737957e-06,-1.3089248568576295e-05,4.2971565562766045e-05
-2.524804585846141e-05,1.5000891835370567e-06,-1.3464079529512674e-05,4.0354130760533735e-05
-2.8026292056893e-05,3.4640745525393868e-06,-1.561650242365431e-05,4.7035970055731013e-05
-3.0684466764796525e-05,1.7696680515655316e-05,-1.361851354886312e-05,5.5369931942550465e-05
-2.85602636722615e-05,2.8126940378569998e-05,-8.510734005540144e-06,5.9093224990647286e-05
-2.5008495867950842e-05,2.656916512933094e-05,-7.629750143678393e-06,5.814972610096447e-05
-2.6049292500829324e-05,2.3483928089262918e-05,-9.980320101021789e-06,5.740186315961182e-05
-2.9191003704909235e-05,2.011470678553451e-05,-1.3032860806561075e-05,6.0878526710439473e-05
-3.3116630220320076e-05,2.5152719899779186e-05,-1.6505111489095725e-05,6.084227788960561e-05
-3.839517739834264e-05,3.0222487112041563e-05,-1.7293408745899796e-05,5.8996018196921796e-05
-4.1460454667685553e-05,2.8684380595223047e-05,-1.2907072232337669e-05,5.858885560883209e-05
-3.879531504935585e-05,2.032505835813936e-05,-6.229427071957616e-06,5.9398269513621926e-05
-3.3488209737697616e-05,1.1002579412888736e-05,-2.454158220643876e-06,5.619943476631306e-05
-2.9518896553781815e-05,8.21499816083815e-06,-4.6613477024948224e-06,5.28392156411428e-05
-2.7135334676131606e-05,9.266374036087655e-06,-1.1136006833112333e-05,5.423792390502058e-05
-2.756082176347263e-05,1.1561909559532069e-05,-1.619118484086357e-05,5.816459815832786e-05
-2.826984564308077e-05,1.792131479305681e-05,-1.819198951125145e-05,6.034489706507884e-05
-2.58218205999583e-05,2.525259151298087e-05,-1.8127913790522143e-05,6.088670852477662e-05
-2.4533750547561795e-05,2.7007250537280925e-05,-1.564478770887945e-05,6.0292477428447455e-05
-2.729471270868089e-05,2.8703645511996e-05,-9.950198545993771e-06,5.934293949394487e-05
-2.891231997637078e-05,3.182011641911231e-05,-7.40310451874393e-06,5.907853483222425e-05
-2.8663793273153715e-05,3.1959410989657044e-05,-1.0649016076058615e-05,5.894092100788839e-05
-2.7571415557758883e-05,2.7608748496277258e-05,-1.5964034901116975e-05,6.100798418628983e-05
-2.615090852486901e-05,2.959205630759243e-05,-1.924234675243497e-05,6.763468263670802e-05
-2.5587734853615984e-05,3.636148903751746e-05,-1.6243327991105616e-05,7.233128417283297e-05
-2.2579883079743013e-05,4.261951835360378e-05,-9.631668945075944e-06,7.175404607551172e-05
-2.068957473966293e-05,3.9337111957138404e-05,-6.099856364016887e-06,7.412381819449365e-05
-2.12310715141939e-05,2.642497383931186e-05,-8.753726433496922e-06,7.71600243751891e-05
-2.2334837922244333e-05,1.7628792193136178e-05,-1.2517341019702144e-05,7.229273614939302e-05
-2.3544007490272634e-05,1.3983733879285865e-05,-1.3166055396141019e-05,6.510640378110111e-05
-2.4071658117463812e-05,9.239428436558228e-06,-1.3037061762588564e-05,6.607994873775169e-05
-2.6466483177500777e-05,-5.5769723985577e-06,-1.7597989426576532e-05,6.693416071357206e-05
-2.7224847144680098e-05,-2.269354990858119e-05,-2.233099439763464e-05,6.370776100084186e-05
-2.6345487640355714e-05,-2.4696157197467983e-05,-2.0579700503731146e-05,6.155784649308771e-05
-2.31519115914125e-05,-2.577292798378039e-05,-1.584046367497649e-05,6.132172711659223e-05
-2.045423570962157e-05,-2.600737934699282e-05,-1.0557700079516508e-05,5.867933577974327e-05
-2.212445360783022e-05,-2.2897218514117412e-05,-7.724321221758146e-06,5.667500590789132e-05
-2.3467291612178087e-05,-1.182227879326092e-05,-6.702584414597368e-06,5.774877354269847e-05
-2.2463404093286954e-05,1.7945857280210475e-06,-6.695030606351793e-06,5.869631058885716e-05
-2.2833808543509804e-05,1.5266603440977633e-05,-7.30823194317054e-06,5.962940485915169e-05
-2.5841054593911394e-05,2.8415573979145847e-05,-8.233703738369513e-06,6.220705108717084e-05
-2.7123520339955576e-05,3.942282637581229e-05,-1.0784930964291561e-05,6.652191223111004e-05
-2.5965686290874146e-05,5.241920371190645e-05,-1.4476578144240193e-05,6.816911627538502e-05
-2.375914846197702e-05,6.074029442970641e-05,-1.4688825103803538e-05,6.214058521436527e-05
-2.152892921003513e-05,6.321026012301445e-05,-1.1494333193695638e-05,5.252089613350108e-05
-1.9913715732400306e-05,6.828847108408809e-05,-9.66585230344208e-06,4.869991971645504e-05
-1.985232302104123e-05,7.640624244231731e-05,-9.117642548517324e-06,4.903460285277106e-05
-2.203248550358694e-05,7.433405698975548e-05,-1.1297485798422713e-05,5.0702859880402684e-05
-2.1756955902674235e-05,6.981013575568795e-05,-1.3847511581843719e-05,5.210629024077207e-05
-1.8194854419562034e-05,6.557869346579537e-05,-1.6851703549036756e-05,5.4574884416069835e-05
-1.5186326891125645e-05,6.68534412398003e-05,-1.4508871572616044e-05,5.6399097957182676e-05
-1.130480995925609e-05,6.954700802452862e-05,-2.22671587835066e-06,5.140991197549738e-05
-8.003930815903004e-06,5.9122849052073434e-05,4.883601377514424e-06,4.605485810316168e-05
-7.490513780794572e-06,4.8191614041570574e-05,2.937567160188337e-06,4.593628545990214e-05
-1.0829352504515555e-05,4.7924269892973825e-05,3.714228853368695e-07,5.05564094055444e-05
-1.394769424223341e-05,4.7228208131855354e-05,4.007063125754939e-06,5.377592970035039e-05
-1.4993655895523261e-05,3.717655999935232e-05,8.098901162156835e-06,5.075184162706137e-05
-1.7454487533541396e-05,1.9346780391060747e-05,8.703793355380185e-06,4.759179864777252e-05
-1.7350012058159336e-05,1.1016197277058382e-05,8.540368980902713e-06,4.917945261695422e-05
-1.3167218639864586e-05,9.525851055514067e-06,9.6033809313667e-06,5.447407238534652e-05
-1.4365636161528528e-05,1.1615433322731405e-05,1.1389818610041402e-05,5.422351387096569e-05
-2.0921463146805763e-05,1.3057863725407515e-05,1.279879143112339e-05,4.965699918102473e-05
-2.6597474061418325e-05,1.4246350474422798e-05,1.428461564501049e-05,4.6902860049158335e-05
-2.7226398742641322e-05,1.6471714843646623e-05,1.2269263606867753e-05,4.8050096665974706e-05
-2.2564465325558558e-05,1.632756357139442e-05,7.1099225351645146e-06,5.065343066235073e-05
-1.8602871932671405e-05,1.518572389613837e-05,1.196867856378958e-06,5.31957957718987e-05
-1.8425238522468135e-05,1.533779504825361e-05,-1.528029656583385e-06,5.474123463500291e-05
-1.9630590031738393e-05,2.0226874767104164e-05,-2.7188211788597982e-06,5.507052628672682e-05
-1.882612741610501e-05,2.4929491701186635e-05,-3.945482148992596e-06,5.3515046602115035e-05
-1.7155245586764067e-05,2.4152610421879217e-05,-5.276576757751172e-06,4.913089287583716e-05
-1.619480644876603e-05,1.5117156181077007e-05,-7.224309229059145e-06,4.971439193468541e-05
-1.529967994429171e-05,5.13284066983033e-06,-1.0319286047888454e-05,5.555879033636302e-05
-1.5980614989530295e-05,6.107002832322905e-07,-1.233330385730369e-05,5.980758214718662e-05
-2.0489347662078217e-05,3.382698423592956e-06,-1.2234619134687819e-05,5.983149821986444e-05
-2.412506364635192e-05,8.792714652372524e-06,-1.1246682333876379e-05,6.078581282054074e-05
-2.3315251382882707e-05,9.027936357597355e-06,-1.1838177670142613e-05,6.281783862505108e-05
-1.9795455955318175e-05,2.583795321697835e-06,-1.3203984053689055e-05,6.46609187242575e-05
-1.810467438190244e-05,2.3492202672059648e-06,-1.205507851409493e-05,6.359213148243725e-05
-1.690397402853705e-05,1.358537429041462e-05,-1.2432273251761217e-05,5.896954098716378e-05
-2.1560668756137602e-05,2.0986470190109685e-05,-1.4458366422331892e-05,5.481221523950808e-05
-3.0196342777344398e-05,1.6191950635402463e-05,-1.5532496036030352e-05,5.292550486046821e-05
-3.249193468946032e-05,1.4781067875446752e-05,-1.645659540372435e-05,5.3969735745340586e-05
-2.8670483516179956e-05,1.8939099390991032e-05,-1.640660957491491e-05,5.431002500699833e-05
-2.540188143029809e-05,1.6390915334341116e-05,-1.598291055415757e-05,5.5616383178858086e-05
-2.813501669152174e-05,7.325770638999529e-06,-1.4780238416278735e-05,5.527038956643082e-05
-3.3621756301727146e-05,4.451698714547092e-06,-1.8395459846942686e-05,5.359363422030583e-05
-3.6900917621096596e-05,7.188925337686669e-06,-2.6238827558699995e-05,5.5835280363680795e-05
-3.714478589245118e-05,8.919203537516296e-06,-3.2370531698688865e-05,5.93800432397984e-05
-3.48657340509817e-05,5.119334673509002e-06,-3.554311842890456e-05,6.276876229094341e-05
-3.06951769744046e-05,2.6177447125519393e-06,-3.398337139515206e-05,6.486997881438583e-05
-2.7926163966185413e-05,2.4346586968704287e-08,-3.055321940337308e-05,6.309279706329107e-05
-2.706439045141451e-05,-4.412082034832565e-06,-2.54176356975222e-05,6.004306851536967e-05
-2.8826463676523417e-05,-1.6217725260503357e-06,-1.9227050870540552e-05,5.918397073401138e-05
-3.037403803318739e-05,8.23763184598647e-06,-1.3365454833547119e-05,5.8698180509964004e-05
-3.212472074665129e-05,1.4687910152133554e-05,-9.594401490176097e-06,6.223261880222708e-05
-3.409942291909829e-05,1.3444616342894733e-05,-1.027137568598846e-05,6.941663741599768e-05
-3.4370670618955046e-05,1.276597504329402e-05,-1.6657124433550052e-05,7.396110595436767e-05
-3.128702883259393e-05,1.5872064977884293e-05,-2.2189671653904952e-05,7.75053194956854e-05
-2.7231857529841363e-05,2.1680365534848534e-05,-2.215769563918002e-05,8.346594404429197e-05
-2.6008156055468135e-05,2.6645633624866605e-05,-1.992538273043465e-05,8.363879896933213e-05
-2.6321367840864696e-05,3.242968887207098e-05,-2.0083580238861032e-05,7.282550359377638e-05
-2.5605222617741674e-05,3.645091055659577e-05,-2.1954256226308644e-05,6.323852721834555e-05
-2.3603739464306273e-05,4.1077939386013895e-05,-2.2972128135734238e-05,6.562250200659037e-05
-2.3704871637164615e-05,4.8270845582010224e-05,-2.1521518647205085e-05,6.840817513875663e-05
-2.640378261276055e-05,5.089825572213158e-05,-1.4119482329988386e-05,6.290146120591089e-05
-2.9121232728357427e-05,4.115222691325471e-05,-6.604066129511921e-06,5.643574331770651e-05
-2.9272521715029143e-05,2.9163316867197864e-05,-5.603958470601356e-06,5.2291579777374864e-05
-2.9707216526730917e-05,1.9700333723449148e-05,-8.565893040213268e-06,5.375457840273157e-05
-2.9725533750024624e-05,7.683131116209552e-06,-1.3078289157419931e-05,5.69490875932388e-05
-2.9160783014958724e-05,2.411900595689076e-06,-1.68154583661817e-05,5.570819848799147e-05
-3.025266050826758e-05,1.0734963325376157e-05,-1.5873809388722293e-05,5.38264139322564e-05
-3.107645534328185e-05,2.695615512493532e-05,-1.2704403161478695e-05,5.142941154190339e-05
-2.897966442105826e-05,3.826410465990193e-05,-1.0987147106789052e-05,4.853643986280076e-05
-2.4684330128366128e-05,4.2285348172299564e-05,-8.807072845229413e-06,4.612066913978197e-05
-2.2873586203786545e-05,4.714578972198069e-05,-5.790325758425752e-06,4.6244796976679936e-05
-2.4614242647658102e-05,5.037169830757193e-05,-2.146513907064218e-06,4.906456160824746e-05
-2.8604086764971726e-05,5.2131512347841635e-05,-1.7140312138508307e-06,5.358671478461474e-05
-3.1991647119866684e-05,5.475612124428153e-05,-6.6929651438840665e-06,5.792580850538798e-05
-3.364969961694442e-05,5.628439612337388e-05,-1.3614446288556792e-05,5.802017039968632e-05
-3.6261106288293377e-05,5.1101182179991156e-05,-1.803716986614745e-05,5.46203700650949e-05
-3.820865094894543e-05,4.550913945422508e-05,-1.7989012121688575e-05,4.994377013645135e-05
-3.793900032178499e-05,4.791626997757703e-05,-1.4492487935058307e-05,5.178565334063023e-05
-3.9116515836212784e-05,4.933515810989775e-05,-9.498598956270143e-06,5.964517913525924e-05
-4.181634358246811e-05,3.930197999579832e-05,-6.0766387832700275e-06,6.479852891061455e-05
-3.895412010024302e-05,2.0030087398481555e-05,-4.219362836010987e-06,6.658393249381334e-05
-3.3213163987966254e-05,4.125274244870525e-06,-1.951156036739121e-06,6.779402610845864e-05
-3.011286935361568e-05,-2.4950534225354204e-06,1.6635254951324896e-07,6.676030898233876e-05
-2.7854541258420795e-05,-7.480204203602625e-06,3.007173177138611e-08,6.544888310600072e-05
-2.61761433648644e-05,-1.1195513252459932e-05,-2.0342313291621394e-06,6.24686581431888e-05
-2.7304347895551473e-05,-4.0227919271274e-06,-2.8731737984344363e-06,5.803551903227344e-05
-2.966188003483694e-05,4.2054580262629315e-06,-4.183274086244637e-06,5.305605009198189e-05
-2.8550781280500814e-05,8.634977348265238e-06,-7.1899730755831115e-06,5.3244202717905864e-05
-2.540284549468197e-05,1.1922197700187098e-05,-8.187763341993559e-06,6.065803609089926e-05
-2.1538333385251462e-05,1.0505267709959298e-05,-8.55531106935814e-06,6.721838872181252e-05
-2.0267136278562248e-05,6.382470473909052e-06,-8.82012136571575e-06,7.024524529697374e-05
-2.1739642761531286e-05,4.040057319798507e-06,-8.433779839833733e-06,7.293638191185892e-05
-2.205171767855063e-05,4.337380232755095e-06,-6.806844794482458e-06,7.562508108094335e-05
-1.9999655705760233e-05,1.0518802810111083e-05,-5.052169399277773e-06,7.870891568018124e-05
-1.698172309261281e-05,2.4600511096650735e-05,-2.2742506189388223e-06,7.987670687725767e-05
-1.6927444448811002e-05,3.605386154958978e-05,-1.1984526508967974e-06,7.78788307798095e-05
-2.0124101865803823e-05,3.497138459351845e-05,-2.7153225801157532e-06,7.542984531028196e-05
-2.3655476979911327e-05,2.7388576199882664e-05,-7.446254130627494e-06,6.634610326727852e-05
-2.6173680453212e-05,2.4360206225537695e-05,-1.1069381798733957e-05,6.008559648762457e-05
-3.0373901608982123e-05,3.209975329809822e-05,-1.0919090527750086e-05,5.760448766523041e-05
-3.071080209338106e-05,4.400686520966701e-05,-1.1333382644806989e-05,5.778020204161294e-05
-2.5760142307262868e-05,5.1677710871445015e-05,-1.3463240065902937e-05,5.713874998036772e-05
-2.2841282770968974e-05,5.2162398787913844e-05,-1.384235110890586e-05,5.450896787806414e-05
-2.434756788716186e-05,4.69768165203277e-05,-9.953471817425452e-06,5.0880134949693456e-05
-2.734658664849121e-05,3.8963105907896534e-05,-7.188303243310656e-06,4.795006680069491e-05
-2.9107488444424234e-05,3.791737253777683e-05,-7.1557765295438e-06,4.738011921290308e-05
-2.759680683084298e-05,4.9776866944739595e-05,-7.281832949956879e-06,4.596909275278449e-05
-2.179259536205791e-05,6.11581199336797e-05,-6.417949407477863e-06,4.8043981223599985e-05
-1.5391133274533786e-05,6.263644172577187e-05,-8.9369550551055e-06,5.352427251636982e-05
-1.1790564713010099e-05,7.22829790902324e-05,-1.4738573554495815e-05,5.555751340580173e-05
-1.1609853572736029e-05,9.470294753555208e-05,-1.9663726561702788e-05,5.022472396376543e-05
-1.5029063433757983e-05,9.910202788887545e-05,-1.9556382540031336e-05,4.745447949972004e-05
-1.8833272406482138e-05,7.23415068932809e-05,-1.7447669961256906e-05,5.110715210321359e-05
-1.7246604329557158e-05,3.0639148462796584e-05,-1.6071644495241344e-05,5.596659320872277e-05
-1.5884639651631005e-05,8.08454024081584e-06,-1.2771221008733846e-05,5.8668432757258415e-05
-1.818270902731456e-05,1.11385033960687e-05,-1.0567402568995021e-05,6.224754179129377e-05
-2.2146021365188062e-05,1.2281378076295368e-05,-1.2032167433062568e-05,6.0593280068133026e-05
-2.527642936911434e-05,-5.990110594211728e-07,-8.267655175586697e-06,5.8558129239827394e-05
-2.5335944883408956e-05,-1.694589991529938e-05,-2.8147110242571216e-06,5.57626954105217e-05
-2.558042797318194e-05,-1.9285922462586313e-05,-1.8179342760049622e-06,5.183863322599791e-05
-2.8688964448519982e-05,-9.028767635754775e-06,-1.8756960571408854e-06,5.532497743843123e-05
-3.34697833750397e-05,4.385573902254691e-06,-3.020865960934316e-06,6.0603215388255194e-05
-3.224175452487543e-05,1.0865988770092372e-05,-3.6161104617349338e-06,6.455404218286276e-05
-2.7106252673547715e-05,9.821163985179737e-06,-1.9851345314236823e-06,6.783886783523485e-05
-2.51698093052255e-05,1.5453308151336387e-05,-2.078591933241114e-06,7.032120629446581e-05
-2.396924355707597e-05,2.3384751330013387e-05,-5.908200364501681e-06,6.848455086583272e-05
-2.4830424081301317e-05,3.0051298381295055e-05,-1.0417269550089259e-05,6.363049760693684e-05
-2.566148032201454e-05,3.485108754830435e-05,-1.3398263035924174e-05,5.9520873037399724e-05
-2.4579867385909893e-05,3.576713061193004e-05,-1.1916166840819642e-05,5.758650149800815e-05
-2.1078514691907912e-05,3.4343665902270004e-05,-8.939630788518116e-06,5.63345747650601e-05
-1.8475238903192803e-05,3.395890234969556e-05,-9.981287803384475e-06,5.455760037875734e-05
-2.1274738173815422e-05,3.433760139159858e-05,-1.5468418496311642e-05,5.239304664428346e-05
-2.5991477741627023e-05,3.6005851143272594e-05,-1.5846771930227987e-05,5.107552351546474e-05
-2.477974157955032e-05,3.974471110268496e-05,-8.608134521637112e-06,5.322883589542471e-05
-1.8546073988545686e-05,3.58078905264847e-05,-2.0232441784173716e-06,5.703510032617487e-05
-1.4570379789802246e-05,2.6824098313227296e-05,-1.0523643823034945e-06,5.813003735966049e-05
-1.427930146746803e-05,3.161469430779107e-05,-2.3588761450810125e-06,5.733027501264587e-05
-1.815415089367889e-05,4.230496779200621e-05,-2.773777623588103e-06,5.7902307162294164e-05
-2.3072720068739727e-05,4.266089672455564e-05,-2.765533963611233e-06,5.733165016863495e-05
-2.7793970730272122e-05,3.2531472243135795e-05,-1.4112343933447846e-06,5.43845999345649e-05
-3.186066896887496e-05,1.036379126162501e-05,1.3578323887486476e-06,5.263551793177612e-05
-3.384917363291606e-05,-6.945715995243518e-06,5.599513883680629e-07,5.228312511462718e-05
-3.363596988492645e-05,-6.509316790470621e-06,-5.475457783177262e-06,5.4318225011229515e-05
-3.351901250425726e-05,7.028836535027949e-06,-1.0827714504557662e-05,5.907499871682376e-05
-3.581985947676003e-05,1.7575521269463934e-05,-1.1573122719710227e-05,6.469306390499696e-05
-3.626439502113499e-05,1.7441938325646333e-05,-1.2325928764767013e-05,6.854460661998019e-05
-3.412026126170531e-05,1.2328484444878995e-05,-1.4555998859577812e-05,7.03432597219944e-05
-3.1986328394850716e-05,1.1172024642291944e-05,-1.3997975656820927e-05,7.199461106210947e-05
-3.0734852771274745e-05,1.471022824262036e-05,-1.0436238881084137e-05,7.167355215642601e-05
-3.0395278372452594e-05,1.0701065548346378e-05,-9.212516488332767e-06,6.745268910890445e-05
-2.8393695174599998e-05,1.8165500250688638e-06,-1.3001731531403493e-05,6.171347922645509e-05
-2.812097591231577e-05,-6.16322768109967e-06,-1.667258038651198e-05,6.088856025598943e-05
-2.9135524528101087e-05,-1.1745277333830018e-05,-1.616174449736718e-05,6.304382259259e-05
-3.0479855922749266e-05,-1.1603094208112452e-05,-1.1673349945340306e-05,6.485234189312905e-05
-2.9510212698369287e-05,-5.07323647980229e-06,-9.80458025878761e-06,6.345447764033452e-05
-2.5925415684469044e-05,2.6184634407400154e-06,-1.1604348401306197e-05,6.197520269779488e-05
-2.2038542738300748e-05,9.980401046050247e-06,-1.499392237747088e-05,6.55487019685097e-05
-1.9293956938781776e-05,1.6110730939544737e-05,-1.6693087673047557e-05,6.842074799351394e-05
-2.0102188500459306e-05,1.8140868633054197e-05,-1.814309143810533e-05,6.77570205880329e-05
-2.554209640948102e-05,2.230482641607523e-05,-2.1856532839592546e-05,6.614547601202503e-05
-3.078261579503305e-05,2.7423091523814946e-05,-2.640976344991941e-05,6.280584784690291e-05
-3.071127139264718e-05,2.7677102480083704e-05,-2.711477100092452e-05,5.5732893088134006e-05
-2.9378317776718177e-05,2.6816271201823838e-05,-2.3730648536002263e-05,5.000596138415858e-05
-3.171404387103394e-05,3.1172192393569276e-05,-2.1629677576129325e-05,4.80054623039905e-05
-3.466335328994319e-05,3.3254156733164564e-05,-2.0530318579403684e-05,5.121900903759524e-05
-3.335553265060298e-05,3.426884359214455e-05,-1.8673586964723654e-05,5.768126720795408e-05
-3.093942359555513e-05,4.775930938194506e-05,-1.5167367564572487e-05,5.972383951302618e-05
-2.5970446586143225e-05,5.905312718823552e-05,-1.1358948540873826e-05,5.610938751487993e-05
-2.15610270970501e-05,5.575286195380613e-05,-8.745238119445276e-06,5.331795910024084e-05
-1.7668136933934875e-05,4.540048757917248e-05,-1.121917648561066e-05,5.18676133651752e-05
-1.2642917681660037e-05,3.104922507191077e-05,-1.276465627597645e-05,4.9254402256337926e-05
-9.734373634273652e-06,1.891665488074068e-05,-5.782253992947517e-06,5.1296272431500256e-05
-1.2159141988377087e-05,1.0374801604484674e-05,-5.965636660221207e-07,5.839177902089432e-05
-1.8196020391769707e-05,1.164861623692559e-05,-4.4146520394861e-07,6.0520418628584594e-05
-2.221361683041323e-05,1.631914528843481e-05,-1.95351526599552e-06,5.9006826631957665e-05
-2.429983578622341e-05,1.654112020332832e-05,-2.7293172024656087e-06,5.784117092844099e-05
-2.1321411622921005e-05,1.435082231182605e-05,8.118369692056149e-07,5.549141496885568e-05
-1.9119848730042577e-05,1.3751617188972887e-05,1.0117365718542715e-06,5.1680224714800715e-05
-2.4178059902624227e-05,2.132701047230512e-05,-4.657564659282798e-06,4.94135201734025e-05
-3.119849498034455e-05,2.059941107290797e-05,-1.0818169357662555e-05,5.1402337703621015e-05
-3.2724499760661274e-05,8.782897566561587e-06,-1.219916703121271e-05,5.288092506816611e-05
-2.682841477508191e-05,-2.328360096726101e-06,-1.0711678442021366e-05,4.981855090591125e-05
-2.184595177823212e-05,-3.4882173167716246e-06,-9.727581527840812e-06,4.5609689550474286e-05
-2.1589003154076636e-05,-7.233538212858548e-07,-8.841253475111444e-06,4.665052256314084e-05
-2.299170955666341e-05,4.592499408317963e-06,-5.391230388340773e-06,4.9763144488679245e-05
-2.5786486730794422e-05,1.5379217074951157e-05,-1.1863666031786124e-06,5.156758925295435e-05
-2.9984003049321473e-05,2.8366470360197127e-05,9.099158404524132e-08,5.395061816670932e-05
-3.258710785303265e-05,3.69057925126981e-05,-2.9535922863033193e-07,5.885758946533315e-05
-3.138893225695938e-05,3.858893978758715e-05,-3.772462378037744e-07,6.285263953031972e-05
-2.8782289518858306e-05,3.6646386433858424e-05,-1.995153979805764e-06,6.190813292050734e-05
-2.7652453354676254e-05,3.4348617191426456e-05,-8.364026143681258e-06,5.799238715553656e-05
-2.5727063984959386e-05,3.751386611838825e-05,-1.4457945326284971e-05,5.483446511789225e-05
-2.446570033498574e-05,4.5045697333989665e-05,-1.4577456568076741e-05,5.46897754247766e-05
-2.6095765861100517e-05,4.86851749883499e-05,-1.369512301607756e-05,5.733297439292073e-05
-2.636044519022107e-05,3.951898906962015e-05,-1.4466831089521293e-05,5.9674483054550365e-05
-2.107951877405867e-05,2.0729430616484024e-05,-1.3932661204307806e-05,5.518495891010389e-05
-1.5286186680896208e-05,-1.7024007092913962e-08,-1.2059507753292564e-05,4.9030379159376025e-05
-1.6672804122208618e-05,-1.883403274405282e-05,-8.614318176114466e-06,4.984377301298082e-05
-2.054347532975953e-05,-2.657724508026149e-05,-4.331938725954387e-06,5.681709080818109e-05
-2.595968180685304e-05,-2.1130965251359157e-05,-1.4631140174969914e-06,6.149229739094153e-05
-3.491132883937098e-05,-1.6967215969998506e-06,-1.3278940969030373e-07,5.783817687188275e-05
-3.9921142160892487e-05,1.9614139091572724e-05,-4.362733250218298e-07,5.2228268032195047e-05
-3.6405224818736315e-05,2.9277676730998792e-05,-4.560550678434083e-06,5.31523946847301e-05
-3.079231464653276e-05,3.568652755348012e-05,-9.399279406352434e-06,6.287426367634907e-05
-2.7454569135443307e-05,4.032463039038703e-05,-1.2370407603157219e-05,6.683287938358262e-05
-2.7193542337045074e-05,5.026386497775093e-05,-1.1251133400946856e-05,6.476516864495352e-05
-3.0359415177372284e-05,5.475382931763306e-05,-1.2665285794355441e-05,6.290183227974921e-05
-3.1113890145206824e-05,5.8201960200676695e-05,-1.714539212116506e-05,6.413275696104392e-05
-2.751780084508937e-05,6.063425826141611e-05,-1.704349233477842e-05,6.806524470448494e-05
-2.198948641307652e-05,6.040632433723658e-05,-1.2551347026601434e-05,6.884965114295483e-05
-2.194444095948711e-05,6.028115967637859e-05,-9.55612904363079e-06,6.877518171677366e-05
-2.6108271413249895e-05,5.926206358708441e-05,-9.020815014082473e-06,6.730265886289999e-05
-2.965161547763273e-05,5.083747237222269e-05,-7.476895916624926e-06,6.486916390713304e-05
-3.374350126250647e-05,3.448089410085231e-05,-6.129022949608043e-06,6.287731957854703e-05
-3.825202657026239e-05,2.156880873371847e-05,-4.473130957194371e-06,6.128470704425126e-05
-3.9638201997149736e-05,1.3880639926355798e-05,3.7780807815579465e-07,5.737959509133361e-05
-3.807260873145424e-05,1.2005352800770197e-05,5.396692813519621e-06,5.1742219511652365e-05
-3.4474658605176955e-05,1.2729490663332399e-05,2.516845597710926e-06,4.554438783088699e-05
-3.1674691854277626e-05,1.2296019122004509e-05,-7.932020707812626e-06,4.1318893636344e-05
-3.426170951570384e-05,1.0057517101813573e-05,-1.580374919285532e-05,4.250018173479475e-05
-3.683198883663863e-05,1.765893648553174e-05,-1.6286381651298143e-05,5.023891571909189e-05
-3.484861008473672e-05,3.10557552438695e-05,-1.5430165149155073e-05,5.251073162071407e-05
-2.7506494006956927e-05,4.92300205223728e-05,-1.6652087651891634e-05,4.97147993883118e-05
-2.2559004719369113e-05,6.346993905026466e-05,-1.564253579999786e-05,5.0593655032571405e-05
-2.3004995455266908e-05,6.697915523545817e-05,-8.91709714778699e-06,5.0196642405353487e-05
-2.523552939237561e-05,7.107340206857771e-05,-1.5767551531098434e-06,5.0424481742084026e-05
-2.4065589968813583e-05,8.088894537650049e-05,1.133180830947822e-06,5.3545081755146384e-05
-1.9596011043176986e-05,8.623655594419688e-05,-2.527560354792513e-06,6.061394378775731e-05
-1.643544419493992e-05,8.066486770985648e-05,-8.241318937507458e-06,6.623611989198253e-05
-1.4731310329807457e-05,6.714159098919481e-05,-1.5198068467725534e-05,6.548711826326326e-05
-1.241700829268666e-05,5.005782441003248e-05,-1.8526097846915945e-05,6.332714838208631e-05
-1.0169406778004486e-05,3.5260636650491506e-05,-1.5671046639909036e-05,5.825237531098537e-05
-1.1410146726120729e-05,2.935870179499034e-05,-1.4391403055924457e-05,5.502259227796458e-05
-1.4406836271518841e-05,2.2347812773659825e-05,-1.8135338905267417e-05,5.946060991846025e-05
-1.4922700756869745e-05,1.7165628378279507e-05,-1.9685496226884425e-05,6.254893378354609e-05
-1.2831937056034803e-05,1.711676668492146e-05,-1.6442802007077262e-05,5.9266440075589344e-05
-1.2095222700736485e-05,1.3005901564611122e-05,-1.2909847100672778e-05,5.434870035969652e-05
-1.4340566849568859e-05,3.441507715251646e-06,-1.0401888175692875e-05,5.064185825176537e-05
-1.80119041033322e-05,-5.7003953770617954e-06,-1.0646549526427407e-05,4.8805002734297886e-05
-2.028920607699547e-05,-1.2678866369242314e-05,-1.2025784599245526e-05,4.790362800122239e-05
-2.230324207630474e-05,-2.0614292225218378e-05,-1.2825481462641619e-05,4.892857396043837e-05
-2.6424082534504123e-05,-2.3488557417294942e-05,-1.216360124089988e-05,5.275425428408198e-05
-3.192116128047928e-05,-2.187475547543727e-05,-1.0059793567052111e-05,5.716280429624021e-05
-3.4336284443270415e-05,-2.1087738787173294e-05,-8.097894351521973e-06,6.057149948901497e-05
-3.186352478223853e-05,-1.5493116734432988e-05,-1.114781935029896e-05,5.959010013611987e-05
-3.0549857910955325e-05,-4.2671175037867215e-07,-1.3306181244843174e-05,5.328383485903032e-05
-3.147877941955812e-05,1.2580638212966733e-05,-9.227182090398856e-06,5.166714618098922e-05
-3.210267823305912e-05,2.219949965365231e-05,-4.200144758215174e-06,5.7283948990516365e-05
-3.0018478355486877e-05,2.4661212592036463e-05,-1.1536189958860632e-06,5.866224819328636e-05
-2.4612561901449226e-05,2.308862895006314e-05,1.9081614937022096e-06,5.676889486494474e-05
-2.4722203306737356e-05,1.9162425815011375e-05,4.600179181579733e-06,5.5142507335403934e-05
-3.0736515327589586e-05,9.264233085559681e-06,4.210262886772398e-06,5.354367385734804e-05
-3.494608972687274e-05,2.665736928975093e-06,8.336024848176748e-07,4.908714981866069e-05
-3.4829663491109386e-05,3.6368351175042335e-06,-1.813715357457113e-06,5.054989014752209e-05
-3.4919441532110795e-05,8.572355909564067e-06,-1.501498331890616e-06,5.522757783182897e-05
-3.643236050265841e-05,1.547697320347652e-05,4.299787406125688e-07,5.708833487005904e-05
-3.6295783502282575e-05,3.099821333307773e-05,2.087070697598392e-06,6.061090243747458e-05
-3.315426874905825e-05,4.802765033673495e-05,-2.139486923624645e-06,6.186443351907656e-05
-2.8475160434027202e-05,5.9695295931305736e-05,-9.873787348624319e-06,6.155067967483774e-05
-2.802705785143189e-05,6.292710895650089e-05,-1.3724719792662654e-05,5.8119036111747846e-05
-2.8767228286596946e-05,5.2419094572542235e-05,-1.48258768604137e-05,5.863558180863038e-05
-2.9925548005849123e-05,4.52270069217775e-05,-1.6028872778406367e-05,6.348532042466104e-05
-3.453500539762899e-05,4.406661173561588e-05,-1.3062897778581828e-05,6.290694727795199e-05
-3.923699114238843e-05,3.609027044149116e-05,-7.529907179559814e-06,5.7924946304410696e-05
-3.942388138966635e-05,1.928871097334195e-05,-7.418539553327719e-06,5.8321882534073666e-05
-3.5874156310455874e-05,1.0257922440359835e-05,-1.0981081686622929e-05,6.189230043673888e-05
-3.195111275999807e-05,1.2861105460615363e-05,-1.3422876691038255e-05,6.322017725324258e-05
-3.1148440029937774e-05,2.0972393031115644e-05,-1.285634880332509e-05,6.183251389302313e-05
-3.3445779990870506e-05,2.7704927560989745e-05,-1.1576866199902724e-05,5.707336822524667e-05
-3.44150721502956e-05,2.6928300940198824e-05,-1.012521443044534e-05,5.291192792356014e-05
-3.207272311556153e-05,1.8762553736451082e-05,-8.406705092056654e-06,5.3302104788599536e-05
-2.7681475330609828e-05,1.3462104107020423e-05,-1.1545649613253772e-05,5.77375030843541e-05
-2.4139229935826734e-05,1.688489101070445e-05,-1.9544408132787794e-05,5.9272693761158735e-05
-2.0832203517784365e-05,2.271744961035438e-05,-2.3801907445886172e-05,5.652313484461047e-05
-1.8759224985842593e-05,2.4106320779537782e-05,-2.342255538678728e-05,5.893704292248003e-05
-1.6740625142119825e-05,1.7208627468789928e-05,-2.2576843548449688e-05,6.672022573184222e-05
-1.296569735131925e-05,9.60082070378121e-06,-1.9474513464956544e-05,6.747469160472974e-05
-8.825252734823152e-06,1.2972256627108436e-05,-1.4794036360399332e-05,6.654627213720232e-05
-3.725981741808937e-06,3.749671304831281e-05,-1.3550366020353977e-05,6.701768143102527e-05
-1.6518184793312685e-06,4.8671659897081554e-05,-1.0905420822382439e-05,6.662927626166493e-05
-4.427989097166574e-06,4.1304239857709035e-05,-6.309464879450388e-06,6.428576307371259e-05
-8.87097939994419e-06,3.5971861507277936e-05,-7.382274816336576e-06,5.9929203416686505e-05
-1.5094118680281099e-05,2.331307223357726e-05,-1.0275822205585428e-05,5.892779881833121e-05
-2.115341521857772e-05,8.693467862030957e-06,-1.1726298907888122e-05,5.823689207318239e-05
-2.1694157112506218e-05,-2.57064044717481e-07,-1.1207924217160325e-05,5.8050889492733404e-05
-1.9061855709878728e-05,-1.6569857734793914e-06,-8.553812222089618e-06,5.7256980653619394e-05
-1.589524617884308e-05,-3.9015998254399165e-07,-1.5682142020523315e-06,5.3795898566022515e-05
-1.2363819223537575e-05,2.954983756353613e-06,6.854739240225172e-06,5.0780578021658584e-05
-1.1462040674814489e-05,8.391619303438347e-06,1.0521291187615134e-05,5.129515557200648e-05
-1.344505108136218e-05,1.14279837362119e-05,3.8576722545258235e-06,5.378531204769388e-05
-1.8669334167498164e-05,1.2476909432734828e-05,-6.136906449683011e-06,5.599530049948953e-05
-2.4558752556913532e-05,1.3199911336414516e-05,-1.0738906894403044e-05,5.873508416698314e-05
-2.5799010472837836e-05,1.8765935237752274e-05,-1.09838883872726e-05,5.905036596232094e-05
-2.3896602215245366e-05,2.164088982681278e-05,-8.174657523341011e-06,5.6593289627926424e-05
-2.600287007226143e-05,1.834713839343749e-05,-6.777283033443382e-06,5.796187906526029e-05
-3.035087138414383e-05,1.2790102118742652e-05,-8.281639566121157e-06,6.28147172392346e-05
-3.027627280971501e-05,7.900594027887564e-06,-8.233433618443087e-06,6.520379247376695e-05
-2.6364572477177717e-05,4.664027983380947e-06,-7.037041086732643e-06,6.454677350120619e-05
-2.182915704906918e-05,5.381389200920239e-06,-1.0247626050841063e-05,6.40449725324288e-05
-1.850866283348296e-05,8.333656296599656e-06,-1.4336579624796286e-05,6.695032789139077e-05
-1.87512250704458e-05,1.299175710300915e-05,-1.2382497516227886e-05,7.04730482539162e-05
-2.281745219079312e-05,1.9220176909584552e-05,-8.046167749853339e-06,6.656084588030353e-05
-2.766112083918415e-05,2.4370174287469126e-05,-1.151280139310984e-05,5.979891284368932e-05
-2.851776844181586e-05,3.306625512777828e-05,-1.5047699889692012e-05,6.135344301583245e-05
-2.605075678729918e-05,4.209666803944856e-05,-1.2973139746463858e-05,6.618248880840838e-05
-2.6828254704014398e-05,5.085746670374647e-05,-1.1137290130136535e-05,6.354966899380088e-05
-3.08133676298894e-05,4.880285996478051e-05,-1.0473000656929798e-05,5.6595377827761695e-05
-3.4081862395396456e-05,3.40383303409908e-05,-1.0908442163781729e-05,6.222527008503675e-05
-3.6786797863896936e-05,2.3521821276517585e-05,-1.0659715371730272e-05,7.407156226690859e-05
-3.493011899990961e-05,2.1019239284214564e-05,-9.780586879060138e-06,7.731985533609986e-05
-3.118680979241617e-05,2.226983997388743e-05,-1.3533825040212832e-05,7.515396282542497e-05
-2.995435534103308e-05,1.7991003915085457e-05,-2.1263786038616672e-05,7.24236379028298e-05
-2.877585393434856e-05,1.4509206266666297e-05,-2.7490919819683768e-05,7.0798079832457e-05
-2.8586762709892355e-05,1.3318338460521773e-05,-2.8070853659301065e-05,6.722468242514879e-05
-2.657803452166263e-05,1.2676864571403712e-05,-2.512148057576269e-05,6.553783896379173e-05
-2.4194145225919783e-05,1.8473532691132277e-05,-2.3493328626500443e-05,6.771209154976532e-05
-2.2676083972328342e-05,2.748144106590189e-05,-2.1596788428723812e-05,6.965479406062514e-05
-2.177283568016719e-05,3.54107360180933e-05,-1.8057882698485628e-05,7.066086982376873e-05
-2.275353836012073e-05,3.4384720493108034e-05,-1.5469324353034608e-05,7.279281271621585e-05
-2.544827111705672e-05,2.699116157600656e-05,-1.7055206626537256e-05,7.401875336654484e-05
-2.8092128559364937e-05,1.8578708477434702e-05,-2.0484852939262055e-05,7.034042209852487e-05
-2.7371797841624357e-05,1.9637020159279928e-05,-2.1026007743785158e-05,6.497669528471306e-05
-2.5077033569687046e-05,3.27617563016247e-05,-1.921398870763369e-05,6.36311960988678e-05
-2.482440868334379e-05,4.758024078910239e-05,-1.9126009647152387e-05,6.651687726844102e-05
-2.5827388526522554e-05,5.1007191359531134e-05,-2.1198879039729945e-05,6.581768684554845e-05
-2.5571418518666178e-05,4.3001913581974804e-05,-2.2430407625506632e-05,5.857220821781084e-05
-2.3886075723567046e-05,2.6092200641869567e-05,-2.0659152141888626e-05,5.643510667141527e-05
-2.1113395632710308e-05,7.152990292524919e-06,-1.795194111764431e-05,6.305293936748058e-05
-2.150067302864045e-05,-3.67672078027681e-06,-1.740021980367601e-05,7.062291842885315e-05
-2.6104311473318376e-05,-2.7723822313419078e-06,-1.5849485862418078e-05,7.471498247468844e-05
-3.1336199754150584e-05,8.74658962857211e-06,-1.2806667655240744e-05,7.114732579793781e-05
-3.4548160328995436e-05,1.805854481062852e-05,-8.652456926938612e-06,6.276130443438888e-05
-3.345607910887338e-05,2.3412743757944554e-05,-4.972488113708096e-06,5.7528461184119806e-05
-3.138423926429823e-05,3.2201820431509987e-05,-5.6322728596569505e-06,5.812299423268996e-05
-3.2219446438830346e-05,4.4750835513696074e-05,-6.0212569223949686e-06,6.048444993211888e-05
-3.1221290555549785e-05,5.905723446630873e-05,-5.260800662654219e-06,6.133170245448127e-05
-2.6780935513670556e-05,7.326575723709539e-05,-4.4757853174814954e-06,5.70444535696879e-05
-2.6443447495694272e-05,8.247153891716152e-05,-3.4220897759951185e-06,5.3471467253984883e-05
-2.613282595120836e-05,8.329515549121425e-05,-1.3750346852248185e-06,5.499989856616594e-05
-2.5067773094633594e-05,8.081350824795663e-05,-3.3475275813543703e-06,5.400858572102152e-05
-2.9398410333669744e-05,8.28049669507891e-05,-8.786671969573945e-06,5.496641097124666e-05
-3.4327902540098876e-05,7.700362039031461e-05,-8.612590136181097e-06,5.678158413502388e-05
-3.413177910260856e-05,5.4097527026897296e-05,-4.059737875650171e-06,5.6070548453135416e-05
-2.9743441700702533e-05,2.6247667847201228e-05,-6.053635388525436e-07,5.475409125210717e-05
-2.6560337573755533e-05,5.483184395416174e-06,-1.5996976117094164e-06,5.3348801884567365e-05
-2.807009150274098e-05,-7.513043783546891e-06,-5.769039489678107e-06,5.171187876840122e-05
-3.266062049078755e-05,-8.351424185093492e-06,-9.069005500350613e-06,4.921793151879683e-05
-3.162617940688506e-05,4.036418886244064e-06,-9.66976676863851e-06,4.863314097747207e-05
-2.2507081666844897e-05,2.2574857212021016e-05,-9.227146620105486e-06,5.118236367707141e-05
-1.6314377717208117e-05,3.259771619923413e-05,-9.450008292333223e-06,5.538881305255927e-05
-1.95823722606292e-05,2.7261447030468844e-05,-1.0536949048400857e-05,5.828355278936215e-05
-2.5830386221059598e-05,1.8301383533980697e-05,-1.3088783816783689e-05,5.5332267947960645e-05
-3.05225548800081e-05,1.772748692019377e-05,-1.7204900359502062e-05,4.9056612624553964e-05
-3.476116762612946e-05,1.8800392354023643e-05,-2.2165275368024595e-05,4.823241397389211e-05
-3.593845394789241e-05,2.100142046401743e-05,-2.2429299860959873e-05,5.051220068708062e-05
-3.0374292691703886e-05,2.935788143076934e-05,-1.647133285587188e-05,5.296169547364116e-05
-2.4572227630415e-05,2.732227585511282e-05,-1.3955447684566025e-05,5.255897485767491e-05
-2.3799610062269494e-05,1.2038527529512066e-05,-1.608614547876641e-05,5.069538383395411e-05
-2.3865031835157424e-05,5.829402880408452e-07,-1.9251456251367927e-05,5.2240477089071646e-05
-2.2085470845922828e-05,-5.042376869823784e-06,-1.9374418116058223e-05,5.1047671149717644e-05
-1.7172285879496485e-05,-4.334951881901361e-06,-1.6992758901324123e-05,4.651279959944077e-05
-1.25755432236474e-05,-5.811503797303885e-06,-1.589936437085271e-05,4.4658856495516375e-05
-1.4030217243998777e-05,-2.2955839085625485e-05,-1.5746043573017232e-05,4.6264551201602444e-05
-2.0728062736452557e-05,-4.2131599911954254e-05,-1.531799352960661e-05,4.7515211917925626e-05
-2.7065676476922818e-05,-4.7292065573856235e-05,-1.5959640222718008e-05,4.296937913750298e-05
-2.7330650482326746e-05,-3.7334993976401165e-05,-1.594825880602002e-05,3.7582409277092665e-05
-2.5215431378455833e-05,-2.1366575310821645e-05,-1.0770071639853995e-05,4.1170067561324686e-05
-2.515429696359206e-05,-3.6996229937358294e-06,-3.7425363643706078e-06,4.938551501254551e-05
-2.625184424687177e-05,8.383119165955577e-06,1.0550372735451674e-06,5.3997631766833365e-05
-2.550800309109036e-05,1.8984910639119335e-05,5.325268261913152e-07,5.304555088514462e-05
-2.1446494429255836e-05,3.222386658308096e-05,-3.802430683208513e-06,4.944560714648105e-05
-1.9548313503037207e-05,5.002556645195e-05,-6.549963927682256e-06,4.7951652959454805e-05
-2.0605606550816447e-05,6.603876681765541e-05,-5.218848400545539e-06,5.300745033309795e-05
-2.5218105292879045e-05,6.911795207997784e-05,-3.5186524200980784e-06,5.9178673836868256e-05
-3.209785063518211e-05,5.806004264741205e-05,-5.964941919955891e-06,6.082675463403575e-05
-3.7089979741722345e-05,4.614360295818187e-05,-1.2757600416080095e-05,6.17460100329481e-05
-3.9039296098053455e-05,3.3251515560550615e-05,-1.9550594515749253e-05,6.296450737863779e-05
-3.990587720181793e-05,9.422939911019057e-06,-2.0996883904444985e-05,6.539122114190832e-05
-3.646412005764432e-05,-9.198835869028699e-06,-1.7404994650860317e-05,6.886645132908598e-05
-2.7969850634690374e-05,-3.3901446840900462e-06,-1.228896599059226e-05,6.852469232399017e-05
-2.1403086066129617e-05,1.5832731151022017e-05,-9.034864888235461e-06,6.280872912611812e-05
-1.87129062396707e-05,2.7137297365698032e-05,-6.209535968082491e-06,5.852782851434313e-05
-1.9389697627048008e-05,3.1614574254490435e-05,1.5270270523615181e-06,6.0292913985904306e-05
-2.0109780962229706e-05,3.085971547989175e-05,1.0183704034716357e-05,6.402144936146215e-05
-1.9310566131025553e-05,3.791980998357758e-05,1.2329756827966776e-05,6.485021731350571e-05
-2.053734533546958e-05,5.3836552979191765e-05,9.381637028127443e-06,6.473845132859424e-05
-2.2489151888294145e-05,5.639212758978829e-05,5.920710918871919e-06,6.339744140859693e-05
-1.9725370293599553e-05,3.739241947187111e-05,3.037267333638738e-06,6.480515730800107e-05
-1.397583127982216e-05,1.5938729120534845e-05,-4.149657797825057e-06,6.43319363007322e-05
-9.973503438232001e-06,6.121667411207454e-06,-1.304510806221515e-05,6.0046499129384756e-05
-1.2747365872201044e-05,1.3564539585786406e-05,-1.2456909644242842e-05,5.965447053313255e-05
-1.8527240172261372e-05,3.299237505416386e-05,-4.653433734347345e-06,5.951767525402829e-05
-2.342380685149692e-05,4.4053809688193724e-05,2.8509937237686245e-06,5.8759596868185326e-05
-2.759878771030344e-05,4.503524178289808e-05,5.899973984924145e-06,5.4056235967436805e-05
-2.7666854293784127e-05,4.26838050771039e-05,1.2581323289850843e-06,4.720602373708971e-05
-2.774761560431216e-05,3.3215528674190864e-05,-5.153035090188496e-06,4.395441646920517e-05
-3.169183401041664e-05,2.4391863917117007e-05,-6.489221505034948e-06,4.6797369577689096e-05
-3.943447882193141e-05,2.2035525034880266e-05,-4.9796458370110486e-06,5.025024074711837e-05
-4.5951524953125045e-05,2.2753551093046553e-05,-7.893751899246126e-06,5.037960727349855e-05
-4.528377394308336e-05,2.950133966805879e-05,-1.5631227142876014e-05,5.116597094456665e-05
-4.134981281822547e-05,4.135968265472911e-05,-1.9728064216906205e-05,5.607111597782932e-05
-4.138286749366671e-05,4.9738926463760436e-05,-1.670718665991444e-05,6.159266195027158e-05
-4.2223178752465174e-05,5.390612568589859e-05,-1.2471014088077936e-05,6.531090912176296e-05
-4.030571290059015e-05,5.624205732601695e-05,-1.2036992302455474e-05,6.926317291799933e-05
-4.1772051190491766e-05,5.113277438795194e-05,-1.3768397366220597e-05,7.183643174357712e-05
-4.7382229240611196e-05,3.461000233073719e-05,-1.1287508641544264e-05,7.008427201071754e-05
-4.994358459953219e-05,1.8110202290699817e-05,-1.996219452848891e-06,6.652764568571001e-05
-4.6438020945061e-05,1.0875675798160955e-05,7.314584308915073e-06,6.682716775685549e-05
-4.0901562897488475e-05,3.270662546128733e-06,5.037642040406354e-06,7.316845585592091e-05
-3.6784778785659e-05,-2.4540076992707327e-06,-2.7935561774938833e-06,8.27050898806192e-05
-3.4883567423094064e-05,9.547372883389471e-07,-2.9996756438777084e-06,8.640705345897004e-05
-3.6175471905153245e-05,8.581239853810985e-06,-8.704409992787987e-07,8.233400876633823e-05
-3.569609907572158e-05,1.4148962691251654e-05,-2.066356046270812e-06,7.437702151946723e-05
-2.568386662460398e-05,1.9567063645808958e-05,-4.881850600213511e-06,7.196829392341897e-05
-1.1612426533247344e-05,2.5323321096948348e-05,-2.9609270768560236e-06,7.677690155105665e-05
-3.7097206586622633e-06,2.582850902399514e-05,-1.3938227994003682e-06,7.959425420267507e-05
-3.205280791007681e-06,2.8071437554899603e-05,-5.287629846861819e-06,7.35207722755149e-05
-3.4531153687566984e-06,4.0525279473513365e-05,-8.404635991610121e-06,6.538740854011849e-05
-3.7398028780444292e-06,4.5433738705469295e-05,-1.4559438568539917e-05,6.009980643284507e-05
-4.375660864752717e-06,3.281270619481802e-05,-2.372993913013488e-05,5.427755240816623e-05
-3.640782324509928e-06,1.688851261860691e-05,-3.1422136089531705e-05,4.663047002395615e-05
-3.982482667197473e-06,5.796096502308501e-06,-3.431254663155414e-05,4.0719482058193535e-05
-5.538881850952748e-06,7.862365691835294e-08,-3.159821790177375e-05,3.359456968610175e-05
-1.1125664059363771e-05,4.843880105909193e-07,-2.5155812181765214e-05,2.2669677491649054e-05
-2.0206125554977916e-05,3.9447518247470725e-06,-1.6881022020243108e-05,1.750523006194271e-05
-2.4681898139533587e-05,6.032210876583122e-06,-9.937960385286715e-06,1.9939188860007562e-05
-2.0037483409396373e-05,6.372425559675321e-06,-4.392536084196763e-06,2.3525515643996187e-05
-1.2563971722556744e-05,3.4828919979190687e-06,-3.594092049752362e-06,2.1847714378964156e-05
-1.0769743312266655e-05,-2.736746409937041e-06,-7.902112884039525e-06,2.1033039956819266e-05
-1.292826982535189e-05,-1.1734809959307313e-06,-1.1439373338362202e-05,2.7834279535454698e-05
-1.6229572793236002e-05,1.3449146536004264e-05,-1.0538064998399932e-05,3.9703889342490584e-05
-2.2325550162349828e-05,2.845391099981498e-05,-1.0404036402178463e-05,5.07143085997086e-05
-2.7606170988292433e-05,3.850465509458445e-05,-1.41893069667276e-05,5.78354811295867e-05
-2.9756163712590933e-05,5.0614697101991624e-05,-1.626138691790402e-05,6.08206755714491e-05
-3.134032158413902e-05,5.757849066867493e-05,-1.4538228242599871e-05,6.19624915998429e-05
-3.0196284569683485e-05,4.951716982759535e-05,-1.0145480700884946e-05,6.425214087357745e-05
-2.960334677482024e-05,3.735620339284651e-05,-5.21445736012538e-06,6.665306136710569e-05
-2.950328962469939e-05,3.3415508369216695e-05,3.3275775876973057e-06,6.86087878420949e-05
-2.350604881939944e-05,4.610982068697922e-05,1.319962120760465e-05,7.439521141350269e-05
-1.5693089153501205e-05,7.363515760516748e-05,1.9253142454545014e-05,8.181544399121776e-05
-1.5471174265258014e-05,9.500756277702749e-05,1.7390595530741848e-05,8.662763139000162e-05
-2.301137283211574e-05,8.717843593331054e-05,6.268330253078602e-06,9.053979010786861e-05
-2.8512999051599763e-05,5.325345046003349e-05,-4.121540314372396e-06,9.305191633757204e-05
-3.0412349588004872e-05,2.083823892462533e-05,-9.561195838614367e-06,9.211149153998122e-05
-2.9791237466270104e-05,1.2380599400785286e-05,-7.843745152058546e-06,9.094279812416062e-05
-2.783108539006207e-05,1.911111939989496e-05,-5.8631389947549906e-06,9.227074042428285e-05
-2.4409730031038634e-05,1.3613815099233761e-05,-3.8292228055070154e-06,9.043481986736879e-05
-2.2347519916365854e-05,-4.800013357453281e-06,1.856373614828044e-07,8.120170969050378e-05
-2.731075437623076e-05,-2.301107633684296e-05,-1.350840761915606e-06,6.932871474418789e-05
-3.4264521673321724e-05,-2.8234917408553883e-05,-8.119323865685146e-06,6.443718302762136e-05
-3.3502932637929916e-05,-2.1590156393358484e-05,-1.1771499885071535e-05,6.635113822994754e-05
-2.6669851649785414e-05,-1.1894047020177823e-05,-8.335281563631725e-06,6.988908717175946e-05
-2.4108816432999447e-05,-1.1352617548254784e-06,-5.94928496866487e-06,6.976356235099956e-05
-2.8040762117598206e-05,1.0342285349906888e-05,-8.052877092268318e-06,6.525283242808655e-05
-3.147463212371804e-05,1.5495290426770225e-05,-1.2853673979407176e-05,6.008718628436327e-05
-3.2148058380698785e-05,1.6623305782559328e-05,-1.758020880515687e-05,5.5695592891424894e-05
-3.138069587294012e-05,2.2346483092405833e-05,-2.206538920290768e-05,5.285971565172076e-05
-2.848003714461811e-05,2.7057256374973804e-05,-2.546978612372186e-05,5.0954102334799245e-05
-2.797648630803451e-05,2.5777460905374028e-05,-2.8270706025068648e-05,4.78269430459477e-05
-3.2443520467495546e-05,3.026839840458706e-05,-2.7726089683710597e-05,4.191053085378371e-05
-3.5392418794799596e-05,4.711995643447153e-05,-2.1932039089733735e-05,3.623150769271888e-05
-3.172785000060685e-05,6.413127266569063e-05,-1.8059030480799265e-05,3.6546574847307056e-05
-2.6505322239245288e-05,7.269922207342461e-05,-1.994807280425448e-05,4.1081992094404995e-05
-2.4656252207932994e-05,7.485673995688558e-05,-2.346495421079453e-05,4.4587130105355754e-05
-2.3576674720970914e-05,7.510219438700005e-05,-2.7879674235009588e-05,4.6043653128435835e-05
-2.0242327082087286e-05,5.1555434765759856e-05,-3.341927003930323e-05,4.533272294793278e-05
-2.4740207663853653e-05,6.291457793849986e-06,-3.4620876249391586e-05,3.7501766200875863e-05
-3.4250922908540815e-05,-2.709325053729117e-05,-3.249698056606576e-05,2.7738769858842716e-05
-3.1546089303446934e-05,-2.727582432271447e-05,-2.7901722205569968e-05,3.092800761805847e-05
-2.1602443666779436e-05,-1.748738213791512e-05,-2.2740643544238992e-05,4.372560215415433e-05
-1.9159189832862467e-05,-1.000849897536682e-05,-2.2067042664275505e-05,5.452437108033337e-05
-2.347100235056132e-05,3.7738050195912365e-06,-2.097612559737172e-05,5.969429912511259e-05
-2.418370422674343e-05,1.8758313672151417e-05,-1.7990387277677655e-05,6.0728492826456204e-05
-2.1869758711545728e-05,3.249611836508848e-05,-1.094543949875515e-05,5.64496403967496e-05
-2.2197482394403778e-05,4.4037209590896964e-05,1.3066752444501617e-06,5.024004349252209e-05
-2.332918120373506e-05,5.5234209867194295e-05,1.4330596968648024e-05,4.6840163122396916e-05
-2.1536923668463714e-05,4.825874202651903e-05,2.0113842765567824e-05,4.6559562179027125e-05
-1.8798991732182913e-05,3.242919046897441e-05,1.8004808225668967e-05,4.6291956095956266e-05
-1.882603464764543e-05,2.9026557967881672e-05,1.4402507076738402e-05,4.341474050306715e-05
-2.1414036382338963e-05,3.7320671253837645e-05,1.0331099474569783e-05,3.773022399400361e-05
-2.227647928521037e-05,3.8523248804267496e-05,3.2585080589342397e-06,3.39308098773472e-05
-1.9218212401028723e-05,3.121834379271604e-05,-5.748364856117405e-06,3.401110370759852e-05
-1.703159614407923e-05,2.6865463951253332e-05,-1.1681119758577552e-05,3.5037552152061835e-05
-2.0149835108895786e-05,2.8481395929702558e-05,-1.1209125659661368e-05,3.68738328688778e-05
-2.6483399778953753e-05,3.5479581129038706e-05,-6.5272770370938815e-06,4.220689879730344e-05
-3.0334473194670863e-05,4.528994031716138e-05,-5.19504101248458e-06,5.366157347452827e-05
-2.939787918876391e-05,5.784668246633373e-05,-7.428632670780644e-06,6.358773680403829e-05
-2.5616811399231665e-05,6.701885286020115e-05,-9.812301868805662e-06,6.587622920051217e-05
-2.1608762835967354e-05,6.589832628378645e-05,-1.0910113815043587e-05,6.647951522609219e-05
-1.9418181182118133e-05,5.552181391976774e-05,-1.1279367754468694e-05,6.795992521801963e-05
-1.941900518431794e-05,5.328781480784528e-05,-1.095533571060514e-05,6.803349242545664e-05
-2.0978992324671708e-05,6.29571732133627e-05,-9.064809091796633e-06,6.836926331743598e-05
-2.1811072656419128e-05,6.59991565044038e-05,-5.153756319487002e-06,6.919376028236002e-05
-1.9962342776125297e-05,5.5018368584569544e-05,-4.617446393240243e-06,6.880071305204183e-05
-1.7083790226024576e-05,4.2883453716058284e-05,-6.210819265106693e-06,6.649675196968019e-05
-1.626019184186589e-05,3.3715274184942245e-05,-8.173325113602914e-06,6.947614019736648e-05
-1.9272794816060923e-05,1.8972630641655996e-05,-8.777683433436323e-06,7.008282409515232e-05
-2.2827944121672772e-05,1.3188924867790774e-06,-1.0185984137933701e-05,6.699027289869264e-05
-2.8056458177161403e-05,-2.7121484436065657e-06,-1.124277878261637e-05,6.278372165979818e-05
-3.5066961572738364e-05,5.5062373576220125e-06,-1.0183384802076034e-05,5.746717215515673e-05
-3.624904638854787e-05,7.78071625973098e-06,-1.1056396033382043e-05,5.779730054200627e-05
-3.1283248972613364e-05,-4.260814876033692e-06,-1.1631087545538321e-05,6.270429003052413e-05
-3.049016959266737e-05,-1.0336190825910307e-05,-1.1564156011445448e-05,6.770625623175874e-05
-3.2922289392445236e-05,-4.210762654111022e-06,-1.1382285265426617e-05,7.075756002450362e-05
-3.073798870900646e-05,8.599687134847045e-06,-1.1623580576269887e-05,7.333615212701261e-05
-2.7839214453706518e-05,1.4730442671861965e-05,-1.1560369785001967e-05,7.108012505341321e-05
-2.9732920665992424e-05,5.115811745781684e-06,-1.0948937415378168e-05,6.62592938169837e-05
-3.3489097404526547e-05,-2.65004814536951e-06,-8.899970453057904e-06,6.0102967836428434e-05
-3.439887586864643e-05,-2.0665886495407904e-06,-6.257557743083453e-06,5.749384581577033e-05
-3.3132004318758845e-05,-2.9325951800274197e-06,-5.160120053915307e-06,5.761016655014828e-05
-3.0329463697853498e-05,-6.3343250076286495e-06,-6.653800483036321e-06,5.678733577951789e-05
-2.8270653274375945e-05,-5.749438059865497e-06,-9.677715752332006e-06,5.454309211927466e-05
-2.7910309654544108e-05,-8.047874871408567e-06,-1.1611826266744174e-05,5.603929457720369e-05
-2.9218470444902778e-05,-9.444798706681468e-06,-1.2806694940081798e-05,6.0993908846285194e-05
-3.110217221546918e-05,-3.4404815778543707e-06,-1.5691546650486998e-05,6.202739314176142e-05
-3.293780537205748e-05,5.161979061085731e-06,-1.821785917854868e-05,6.069678420317359e-05
-3.228733839932829e-05,1.0306034710083622e-05,-1.6887668607523665e-05,6.174902227940038e-05
-2.9697890568058938e-05,1.3056110219622497e-05,-1.1538993931026198e-05,6.665364344371483e-05
-3.0000086553627625e-05,1.3300502359925304e-05,-1.0796085916808806e-05,7.004774670349434e-05
-3.215281685697846e-05,1.2254901776032057e-05,-1.5210538549581543e-05,6.782692071283236e-05
-2.979391319968272e-05,1.631104532862082e-05,-1.5332876500906423e-05,6.498168659163639e-05
-2.6984689611708745e-05,1.8951668607769534e-05,-1.1751820238714572e-05,6.640353967668489e-05
-3.178593760821968e-05,9.765692084329203e-06,-4.770272880705306e-06,7.121839007595554e-05
-3.4092972782673314e-05,-3.5819216464005876e-06,6.630184543610085e-07,7.118481153156608e-05
-3.390255733393133e-05,-9.526255780656356e-06,-4.4042221816198435e-06,6.28096386208199e-05
-3.44891996064689e-05,-2.147521399820107e-06,-1.2036535736115184e-05,5.925969162490219e-05
-3.4269934985786676e-05,6.826952358096605e-06,-1.5632049326086417e-05,5.96529571339488e-05
-3.342827403685078e-05,9.45683495956473e-06,-1.5690753571107052e-05,6.13190932199359e-05
-2.8029066015733406e-05,9.762467925611418e-06,-1.661370879446622e-05,6.115448923083022e-05
-2.2482739950646646e-05,1.8590186300571077e-05,-1.890048042696435e-05,5.723937283619307e-05
-2.1515061234822497e-05,3.093041596002877e-05,-1.4930088582332246e-05,5.317069008015096e-05
-2.553333979449235e-05,3.144578658975661e-05,-1.0005117474065628e-05,5.4944252042332664e-05
-2.7197456802241504e-05,2.519804547773674e-05,-1.043236716213869e-05,5.889232852496207e-05
-2.440386924718041e-05,2.097262222378049e-05,-1.2467851774999872e-05,5.98482001805678e-05
-2.084587686113082e-05,2.6057876311824657e-05,-1.0606694559101015e-05,5.7304212532471865e-05
-1.814812458178494e-05,3.433599340496585e-05,-9.534387572784908e-06,5.1237268053228036e-05
-1.633788451727014e-05,3.7172088923398405e-05,-1.3055683666607365e-05,4.595523205352947e-05
-1.669960875005927e-05,3.5407105315243825e-05,-1.647363751544617e-05,4.5375119952950627e-05
-1.9886687368853018e-05,3.627223486546427e-05,-1.558581061544828e-05,5.150743527337909e-05
-2.3306734874495305e-05,3.711698082042858e-05,-1.2196399438835215e-05,5.654473716276698e-05
-2.7789339583250694e-05,3.475348785286769e-05,-1.1046025974792428e-05,5.664477794198319e-05
-3.076162465731613e-05,3.2364478101953864e-05,-1.293011609959649e-05,5.62407003599219e-05
-3.1687377486377954e-05,3.1473799026571214e-05,-1.4101249689701945e-05,5.808911373605952e-05
-3.268027285230346e-05,3.128335811197758e-05,-1.164254717878066e-05,5.728101677959785e-05
-3.360154005349614e-05,3.391476639080793e-05,-6.94132586431806e-06,5.516291275853291e-05
-3.3986732887569815e-05,3.978118911618367e-05,-4.738667030323995e-06,5.375194814405404e-05
-3.210875001968816e-05,3.8215566746657714e-05,-4.144425474805757e-06,5.513277210411616e-05
-3.0454873922280967e-05,3.4279379178769886e-05,-1.4378858850250253e-06,5.7475150242680684e-05
-3.4649809094844386e-05,4.342595275375061e-05,-3.957130445542134e-07,5.649017111863941e-05
-3.8519097870448604e-05,5.123119262862019e-05,1.0929492191280588e-06,5.161097942618653e-05
-3.6699799238704145e-05,4.324235851527192e-05,1.6872776598120254e-07,4.853179780184291e-05
-3.196245961589739e-05,3.476986603345722e-05,-2.4299315555253997e-06,5.199705992708914e-05
-2.885382309614215e-05,3.103515336988494e-05,-4.110161626158515e-06,5.5564847571076825e-05
-2.860221138689667e-05,3.6055746022611856e-05,-4.669831923820311e-06,5.631433305097744e-05
-2.6250256269122474e-05,4.963663377566263e-05,-6.625382411584724e-06,5.413629696704447e-05
-2.3513084670412354e-05,5.0279028073418885e-05,-1.2066817362210713e-05,5.4585605539614335e-05
-2.1035759345977567e-05,3.705528433783911e-05,-1.0105651199410204e-05,5.758682527812198e-05
-2.041494553850498e-05,2.4597060473752208e-05,-3.0674088975501945e-06,6.064859917387366e-05
-2.295382000738755e-05,2.5530700440867804e-05,9.480321523369639e-07,6.042938548489474e-05
-2.3583381334901787e-05,3.091847611358389e-05,1.3460562513500918e-06,5.5316457292065024e-05
-2.0659448637161404e-05,2.3798851543688215e-05,-1.246543433808256e-06,4.766558777191676e-05
-1.6244701328105293e-05,1.4541212294716388e-05,-7.1135877988126595e-06,4.1740167944226414e-05
-1.64335360750556e-05,1.7332922652713023e-05,-1.1928750609513372e-05,4.484295641304925e-05
-2.1053507225587964e-05,1.8936047126771882e-05,-1.1234523299208377e-05,5.368424899643287e-05
-2.5052317141671665e-05,9.774112186278217e-06,-9.177961146633606e-06,6.416002725018188e-05
-2.4675848180777393e-05,1.7264807183892117e-06,-1.0142781320610084e-05,7.185153663158417e-05
-2.10398793569766e-05,2.517749408070813e-06,-1.058451016433537e-05,7.278414705069736e-05
-1.9589937437558547e-05,8.442604666925035e-06,-8.446581887255888e-06,6.446729821618646e-05
-2.150297223124653e-05,1.421574143023463e-05,-8.109704140224494e-06,5.383618190535344e-05
-2.303467772435397e-05,2.250434954476077e-05,-9.268103895010427e-06,5.2538081945385784e-05
-2.2903790522832423e-05,3.8605696317972615e-05,-1.1906169675057754e-05,6.242567906156182e-05
-2.289800249855034e-05,5.66495509701781e-05,-1.592055741639342e-05,7.275381358340383e-05
-2.386483902228065e-05,5.832283932249993e-05,-1.649023215577472e-05,7.702748553128913e-05
-2.4811002731439658e-05,5.13331797264982e-05,-1.488198267907137e-05,7.437109161401168e-05
-2.517199573048856e-05,5.450256503536366e-05,-1.1867055945913307e-05,6.841562571935356e-05
-2.5763876692508347e-05,6.102783663664013e-05,-9.593971299182158e-06,6.418852717615664e-05
-2.7295869585941546e-05,6.807248428231105e-05,-1.0957010999845807e-05,6.371156632667407e-05
-3.0859642720315605e-05,7.808647205820307e-05,-1.5656214600312524e-05,6.976805161684752e-05
-3.516118158586323e-05,7.46394507586956e-05,-2.0634501197491772e-05,7.277506665559486e-05
-3.951464168494567e-05,6.272480095503852e-05,-2.062593739537988e-05,7.121932139853016e-05
-4.179422467132099e-05,5.4588534112554044e-05,-1.5058509234222583e-05,6.705435225740075e-05
-3.963437848142348e-05,3.793913128902204e-05,-4.419257493282203e-06,6.376053352141753e-05
-3.1232237233780324e-05,1.6750531358411536e-05,3.139919726891094e-06,6.106567161623389e-05
-2.125563332810998e-05,5.018979209125973e-06,4.874500518781133e-06,5.825974585604854e-05
-1.7934236893779598e-05,4.1112607505056076e-06,-5.046283604315249e-07,5.868378866580315e-05
-2.086764834530186e-05,6.7202936406829394e-06,-1.0073719749925658e-05,5.9317477280274034e-05
-2.396003037574701e-05,5.09826531924773e-06,-1.646592681936454e-05,6.227663834579289e-05
-2.18594323087018e-05,6.756065886293072e-06,-1.582665936439298e-05,6.566420779563487e-05
-1.8312133761355653e-05,1.5829276890144683e-05,-7.453456419170834e-06,6.751376349711791e-05
-1.8030163118964992e-05,2.47267398663098e-05,2.1584507976513123e-06,6.663167005172e-05
-2.025377943937201e-05,2.219239468104206e-05,5.398976554715773e-06,6.548764940816909e-05
-2.1883975932723843e-05,1.862829776655417e-05,1.971213350770995e-06,6.428507913369685e-05
-2.273135760333389e-05,2.456532274663914e-05,1.2873468904217589e-06,6.200163625180721e-05
-2.14487845369149e-05,3.4284770663361996e-05,2.9357288440223783e-06,6.253199535422027e-05
-1.8735865523922257e-05,3.717578510986641e-05,6.493644946203858e-07,6.492491957033053e-05
-1.8593858840176836e-05,2.6052621251437813e-05,-6.036904323991621e-06,6.319615931715816e-05
-2.184077129641082e-05,1.0439486686664168e-05,-1.0913095138675999e-05,5.808240894111805e-05
-2.2886935767019168e-05,-5.896222621259994e-09,-1.1696803994709626e-05,5.403890827437863e-05
-2.145619691873435e-05,-7.50400931792683e-06,-1.44174855449819e-05,5.065851655672304e-05
-2.469850551278796e-05,-1.4764183106308337e-05,-1.9419514501350932e-05,4.947330671711825e-05
-2.8884189305244945e-05,-1.503920339018805e-05,-1.8333659681957215e-05,5.014337511966005e-05
-2.947655229945667e-05,-1.0192857189395e-05,-1.1085488040407654e-05,4.9603855586610734e-05
-2.5248644305975176e-05,-2.150247837562347e-06,-3.5161228879587725e-06,4.970169175066985e-05
-2.0342025891295634e-05,-1.2005367011624912e-07,-1.4893021216266789e-06,5.167054041521624e-05
-1.7680926248431206e-05,-1.4968535651860293e-05,-1.890589487629768e-06,5.2725528803421184e-05
-2.0748868337250315e-05,-3.1028041121317074e-05,-4.816535692953039e-06,5.192787284613587e-05
-3.057075446122326e-05,-2.4872771973605268e-05,-8.799527677183505e-06,4.960682781529613e-05
-3.942502735299058e-05,-4.908213213639101e-06,-5.5767191042832565e-06,5.128513657837175e-05
-4.095644544577226e-05,6.931578809599159e-06,-2.850587634384283e-06,5.397152199293487e-05
-3.3242307836189866e-05,1.029057693813229e-05,-5.35393974132603e-06,5.51759876543656e-05
-2.327313632122241e-05,2.0326653611846268e-05,-1.0503369594516698e-05,5.5612032156204805e-05
-1.8988252122653648e-05,3.972009653807618e-05,-1.1903277481906116e-05,5.743599831475876e-05
-1.8077056665788405e-05,5.694291030522436e-05,-8.250836799561512e-06,5.886968210688792e-05
-2.019867315539159e-05,6.24782987870276e-05,-7.201803100542747e-07,5.540268830372952e-05
-2.4752607714617625e-05,5.58130705030635e-05,3.9669976104050875e-06,5.0788195949280635e-05
-2.7052414225181565e-05,4.532085222308524e-05,-3.2428315535071306e-06,4.852997881243937e-05
-2.5734696464496665e-05,3.577940879040398e-05,-1.793916817405261e-05,4.791062019648962e-05
-2.5380513761774637e-05,2.37183048739098e-05,-2.8118663976783864e-05,4.724649988929741e-05
-2.799231697281357e-05,1.2714684999082237e-05,-2.7548336220206693e-05,4.60271694464609e-05
-3.085555727011524e-05,7.533796178904595e-06,-2.169427170883864e-05,4.380560130812228e-05
-3.2552536140428856e-05,4.263858045305824e-06,-1.841061020968482e-05,4.22744415118359e-05
-3.1031468097353354e-05,2.5622562134230975e-06,-2.0251698515494354e-05,4.461509524844587e-05
-2.588181996543426e-05,4.706269464804791e-06,-2.1832518541486934e-05,5.201874955673702e-05
-2.2142425223137252e-05,5.140383109392133e-06,-2.0235413103364408e-05,5.68337673030328e-05
-2.436726754240226e-05,7.211692718556151e-06,-1.685122879280243e-05,5.499338294612244e-05
-2.9855284083168954e-05,1.701827932265587e-05,-1.4421167179534677e-05,5.27454394614324e-05
-3.385644595255144e-05,2.2990830984781496e-05,-1.5731429812149145e-05,5.3663017752114683e-05
-3.624002420110628e-05,2.3707230866421014e-05,-1.791573959053494e-05,5.645919736707583e-05
-4.0943832573248073e-05,2.8613772883545607e-05,-1.5815694496268407e-05,5.821238300995901e-05
-4.158992669545114e-05,3.345048025948927e-05,-9.093289918382652e-06,6.083497282816097e-05
-3.2740183087298647e-05,3.974852370447479e-05,-9.181537279800978e-06,6.525189382955432e-05
-2.7378946469980292e-05,4.2775060137500986e-05,-1.5009699382062536e-05,6.629867857554927e-05
-3.1996285542845726e-05,3.950112659367733e-05,-1.2109549061278813e-05,6.474106339737773e-05
-3.6754914617631584e-05,4.185759098618291e-05,-7.003317932685604e-06,6.263844261411577e-05
-3.5372031561564654e-05,4.935766992275603e-05,-6.678900263068499e-06,6.367358582792804e-05
-3.319741881568916e-05,4.720605647889897e-05,-7.3918613452406134e-06,6.531843246193603e-05
-3.4148011764045805e-05,2.856967694242485e-05,-9.657212103775237e-06,6.47551059955731e-05
-3.303551784483716e-05,1.1006491149601061e-05,-1.394641185470391e-05,6.564173236256465e-05
-3.228213608963415e-05,4.727992291009286e-06,-1.9079750927630812e-05,7.042870129225776e-05
-2.7980695449514315e-05,5.993579634377966e-06,-2.12958111660555e-05,7.598928641527891e-05
-2.136925104423426e-05,6.2387421166931745e-06,-1.9616556528490037e-05,7.776316488161683e-05
-1.6020059774746187e-05,6.1489986364904325e-06,-1.9247634554631077e-05,7.474575977539644e-05
-1.2727373359666672e-05,7.890743290772662e-06,-1.786983193596825e-05,7.207497401395813e-05
-1.198261361423647e-05,1.279718526348006e-05,-1.3741355360252783e-05,6.930542440386489e-05
-1.2711098861473147e-05,1.8298047507414594e-05,-6.751994988007937e-06,6.389355257852003e-05
-1.1638384421530645e-05,2.676158146641683e-05,-1.6793633221823256e-06,5.693465573131107e-05
-1.0631497389113065e-05,3.8587008020840585e-05,-4.67588461106061e-06,4.835772779188119e-05
-1.4703006854688283e-05,4.596958024194464e-05,-1.3644978025695309e-05,4.071952207596041e-05
-2.063907595584169e-05,4.279240238247439e-05,-1.846578743425198e-05,3.3015934604918584e-05
-2.4076527552097104e-05,3.0075132599449717e-05,-1.5484116374864243e-05,2.5290417397627607e-05
-2.1720368749811314e-05,1.4413265489565674e-05,-1.2443424566299655e-05,2.1689758796128444e-05
-1.7145861420431174e-05,9.508635230304208e-06,-1.549869921291247e-05,1.8078322682413273e-05
-1.1239027116971556e-05,2.566708280937746e-05,-1.971885831153486e-05,9.662736374593806e-06
-5.670384780387394e-06,4.427947715157643e-05,-2.016913640545681e-05,5.659981070493814e-06
-4.150766926613869e-06,5.115239036967978e-05,-1.949267607415095e-05,1.0974981705658138e-05
-8.918967068893835e-06,5.528023757506162e-05,-1.5398562027257867e-05,2.0522151316981763e-05
-1.7557058527017944e-05,5.5867341870907694e-05,-1.2271049854462035e-05,2.972422407765407e-05
-2.2553471353603527e-05,4.7180161345750093e-05,-1.2482913916755933e-05,4.175350841251202e-05
-2.389143264736049e-05,4.352046380518004e-05,-1.0300191206624731e-05,5.3197280067251995e-05
-2.8444059353205375e-05,4.4627795432461426e-05,-1.4895530284775305e-06,5.721210254705511e-05
-3.374828156665899e-05,5.1207145588705316e-05,5.7144138736475725e-06,5.825506377732381e-05
-3.959690366173163e-05,6.826130993431434e-05,1.1163785529788584e-05,6.270353333093226e-05
-4.04047968913801e-05,8.241936302511021e-05,1.5078200704010669e-05,7.036951865302399e-05
-3.3387488656444475e-05,8.114235970424488e-05,9.955355380952824e-06,7.760192238492891e-05
-2.344538916076999e-05,6.324745481833816e-05,-2.786242930596927e-06,8.060314576141536e-05
-1.889590384962503e-05,3.7593781598843634e-05,-1.3310846043168567e-05,7.955078035593033e-05
-1.8918446585303172e-05,2.4473434677929617e-05,-1.53542059706524e-05,7.719569839537144e-05
-1.633320607652422e-05,2.6981433620676398e-05,-1.5426487152581103e-05,7.471304706996307e-05
-9.306325409852434e-06,2.4563396436860785e-05,-1.9362292732694186e-05,7.149617886170745e-05
-1.3249099310996826e-06,6.337698323477525e-06,-2.3831307771615684e-05,7.332285167649388e-05
4.477231527744152e-07,-1.0615957762638573e-05,-2.341290564800147e-05,7.756794366287068e-05
-6.562037469848292e-06,-1.4430112059926614e-05,-1.854897527664434e-05,7.785631896695122e-05
-1.8253664165968075e-05,-1.050591527018696e-05,-1.5605352018610574e-05,7.325300975935534e-05
-2.599224535515532e-05,-6.000442226650193e-06,-1.638291905692313e-05,6.288055737968534e-05
-2.6808589609572664e-05,2.3635477930383786e-07,-1.5062376405694522e-05,5.4975334933260456e-05
-2.6308400265406817e-05,1.1680779607559089e-05,-9.618148396839388e-06,5.453104313346557e-05
-3.059482332901098e-05,2.5201694370480254e-05,-2.7735050025512464e-06,5.780881838290952e-05
-3.4055934520438313e-05,3.0825856811134145e-05,3.7071583847136935e-07,5.765605965279974e-05
-3.324656790937297e-05,2.7063177185482346e-05,-7.234944519041164e-07,5.477683953358792e-05
-2.9056451239739545e-05,2.8587071938090958e-05,-1.4763105582460412e-06,5.494727520272136e-05
-2.765625686151907e-05,3.0345388950081542e-05,2.4193227545765694e-06,5.9153582697035745e-05
-3.062742325710133e-05,1.6979227439151146e-05,7.4733616202138364e-06,6.149459659354761e-05
-3.485335400910117e-05,7.149080261115159e-07,7.938319868117105e-06,6.0145084717078134e-05
-3.902467142324895e-05,-5.735231752623804e-06,4.66097208118299e-06,6.0605303588090464e-05
-4.226163218845613e-05,-4.705500487034442e-06,-3.088305220444454e-07,6.311674223979935e-05
-3.989707329310477e-05,-3.7436161619552877e-06,-7.254589945659973e-06,6.574585131602362e-05
-3.406953692319803e-05,-8.73195949679939e-06,-1.3663124263985083e-05,6.780456169508398e-05
-3.09429997287225e-05,-7.181791261245962e-06,-1.6233318092417903e-05,6.918508734088391e-05
-2.981328361784108e-05,4.598881787387654e-06,-1.4981295862526167e-05,7.119619840523228e-05
-3.087542427238077e-05,2.3204176613944583e-05,-1.5235472346830647e-05,7.417931192321703e-05
-2.654773197718896e-05,3.7174078897805884e-05,-1.4876593013468664e-05,7.596387877129018e-05
-1.837435229390394e-05,4.259985507815145e-05,-1.2461321603041142e-05,7.371831452473998e-05
-1.4852672393317334e-05,3.3224911021534353e-05,-1.144837551692035e-05,7.014156290097162e-05
-1.8205259038950317e-05,2.521644637454301e-05,-1.1714840184140485e-05,6.626969116041437e-05
-2.473969834682066e-05,3.5895609471481293e-05,-1.4731283044966403e-05,6.164439400890842e-05
-2.7927859264309518e-05,4.979215009370819e-05,-1.5971156244631857e-05,5.6873053836170584e-05
-2.7413025236455724e-05,4.952916788170114e-05,-1.4066833500692155e-05,5.462092303787358e-05
-2.4840514015522785e-05,3.694989936775528e-05,-1.4016527529747691e-05,5.539358244277537e-05
-2.4204206056310795e-05,2.135150680260267e-05,-1.698745290923398e-05,5.6160741223720834e-05
-2.437906186969485e-05,1.3107647646393161e-05,-1.9110080756945536e-05,5.932973726885393e-05
-2.1717803974752314e-05,2.4033835870795883e-05,-1.893988883239217e-05,6.349972682073712e-05
-1.7948210370377637e-05,3.831726644420996e-05,-1.8290711523150094e-05,6.416089308913797e-05
-1.7587924958206713e-05,4.0043982153292745e-05,-1.7555088561493903e-05,6.262603710638359e-05
-1.889729537651874e-05,3.977991946157999e-05,-1.6614512787782587e-05,6.281105743255466e-05
-1.9029976101592183e-05,4.6912806283216923e-05,-1.56149071699474e-05,6.426272739190608e-05
-2.142173980246298e-05,4.916286707157269e-05,-1.4727717825735454e-05,6.703336839564145e-05
-2.7028381737181917e-05,4.689881461672485e-05,-1.4405623915081378e-05,6.695080082863569e-05
-3.249293513363227e-05,4.8651643737684935e-05,-1.6259687981801108e-05,6.25441170996055e-05
-3.295827264082618e-05,5.7245746575063094e-05,-1.704490205156617e-05,5.9076926845591515e-05
-2.8805132387788035e-05,7.189268944784999e-05,-1.406932369718561e-05,5.8472040109336376e-05
-2.59944408753654e-05,7.948814891278744e-05,-7.758423635095824e-06,6.241867959033698e-05
-2.6012994567281567e-05,5.821279773954302e-05,-4.238705969328294e-06,6.419343844754621e-05
-2.550765930209309e-05,1.9318251361255534e-05,-9.347276318294462e-06,6.293554906733334e-05
-2.651637259987183e-05,-1.4162682418827899e-05,-1.495221113145817e-05,6.0957743698963895e-05
-3.0461289497907273e-05,-2.489893086021766e-05,-1.416989562130766e-05,5.802671512356028e-05
-3.082138573518023e-05,-1.6193991541513242e-05,-7.066842499625636e-06,5.615520785795525e-05
-2.640428465383593e-05,-9.562117156747263e-06,1.7398010641045403e-06,5.8122128393733874e-05
-2.445760947011877e-05,-1.0765182196337264e-05,7.3529372457414865e-06,6.353518256219104e-05
-2.8900421966682188e-05,-1.1860492122650612e-05,4.53388383903075e-06,6.473086978076026e-05
-3.0565592169295996e-05,-9.693430001789238e-06,-4.988919954485027e-06,6.399724225047976e-05
-2.791385486489162e-05,-3.9228225432452746e-06,-1.3996153938933276e-05,6.819363625254482e-05
-2.7266762117506005e-05,6.06448202233878e-06,-1.8097201973432675e-05,7.330171501962468e-05
-2.813060928019695e-05,1.002859335130779e-05,-1.530982626718469e-05,7.259134872583672e-05
-2.9338230888242833e-05,1.0329808901587967e-05,-9.953494554792996e-06,6.660264625679702e-05
-3.0970146326581016e-05,1.3323736311576795e-05,-5.729287750000367e-06,6.020105865900405e-05
-3.1118503102334216e-05,1.783252810128033e-05,-6.706921794830123e-06,5.8344823628431186e-05
-2.8540065613924526e-05,2.427185063424986e-05,-1.1268983143963851e-05,5.8832549257203937e-05
-2.8302027203608304e-05,3.23665990435984e-05,-1.2309007615840528e-05,5.61960696359165e-05
-3.130643381155096e-05,3.3266464015468955e-05,-9.675100955064408e-06,5.2228268032195047e-05
-3.397878390387632e-05,2.376975135121029e-05,-9.492932804278098e-06,5.133553349878639e-05
-3.445041147642769e-05,1.8774499039864168e-05,-1.0276596185576636e-05,5.631418389384635e-05
-3.4867003705585375e-05,2.1439998818095773e-05,-7.443735739798285e-06,6.421680154744536e-05
-3.286129503976554e-05,2.2565849576494657e-05,-4.656835699279327e-06,6.791354098822922e-05
-2.8070669941371307e-05,2.3647646230529062e-05,-4.5077395043335855e-06,6.851351645309478e-05
-2.6753868951345794e-05,2.141084951290395e-05,-5.450113349070307e-06,6.721974932588637e-05
-3.100174944847822e-05,1.0205450962530449e-05,-7.688945515837986e-06,6.851662328699604e-05
-3.764864959521219e-05,6.164004275888146e-07,-1.3683613360626623e-05,7.500160427298397e-05
-3.965522409998812e-05,7.59095610192162e-06,-1.8223792721983045e-05,7.971761806402355e-05
-3.232773451600224e-05,3.293556073913351e-05,-1.4464088962995447e-05,7.590101449750364e-05
-2.631320785440039e-05,4.5110005885362625e-05,-9.330308785138186e-06,7.044358790153638e-05
-2.4577764634159394e-05,3.164492954965681e-05,-6.553750154125737e-06,7.230044138850644e-05
-2.3027159841149114e-05,3.095906140515581e-05,-5.1627735047077294e-06,7.27770893718116e-05
-2.4730241420911625e-05,4.295657709008083e-05,-1.022960805130424e-05,6.741536344634369e-05
-2.5009712771861814e-05,4.3097636080347e-05,-2.028360358963255e-05,6.197867332957685e-05
-2.4732664314797148e-05,3.436305996729061e-05,-2.315554411325138e-05,5.7565863244235516e-05
-2.658519588294439e-05,3.5225537430960685e-05,-1.854594847827684e-05,5.486457303049974e-05
-2.788991878333036e-05,3.898690556525253e-05,-1.6450672774226405e-05,5.6218344980152324e-05
-2.8444725103327073e-05,4.055700628669001e-05,-1.8432676370139234e-05,5.811091250507161e-05
-2.9827577236574143e-05,4.4691852963296697e-05,-2.0576955648721196e-05,5.60904445592314e-05
-3.1809053325559944e-05,4.199458271614276e-05,-1.946613338077441e-05,4.9722952098818496e-05
-3.197834303136915e-05,3.018458119186107e-05,-1.6985963156912476e-05,4.7133715270319954e-05
-3.239907891838811e-05,2.128352934960276e-05,-1.569331652717665e-05,4.9615638999966905e-05
-3.1141858926275745e-05,2.205342025263235e-05,-1.7908319932757877e-05,5.199517181608826e-05
-2.767716250673402e-05,2.877589940908365e-05,-1.9868946765200235e-05,5.278400567476638e-05
-2.4606093575130217e-05,3.553843998815864e-05,-1.56750811584061e-05,5.4981788707664236e-05
-2.318272163392976e-05,3.9515765820397064e-05,-7.611918590555433e-06,5.699281973647885e-05
-2.3245562260854058e-05,3.797749013756402e-05,-3.290656877652509e-06,5.589351349044591e-05
-2.35403476835927e-05,2.2633665139437653e-05,-4.684130999521585e-06,5.572772352024913e-05
-2.3977510863915086e-05,6.903951543790754e-06,-9.152710845228285e-06,5.834442708874121e-05
-2.4211551135522313e-05,4.625765086530009e-06,-1.245335351995891e-05,6.064219996915199e-05
-2.3626218535355292e-05,1.459771920053754e-05,-1.283265828533331e-05,5.985929965390824e-05
-2.5258912501158193e-05,2.273251629958395e-05,-1.0659089639375452e-05,5.787350528407842e-05
-3.0232300559873693e-05,2.3268532459042035e-05,-4.521095888776472e-06,5.6908014812506735e-05
-3.3935684768948704e-05,2.3373520889435895e-05,2.003178224185831e-06,5.627401696983725e-05
-2.9335118597373366e-05,2.505055999790784e-05,9.275121328755631e-07,5.3581730753649026e-05
-2.336578836548142e-05,2.3895030608400702e-05,-5.145929662830895e-06,5.2649509598268196e-05
-2.2443695343099535e-05,1.6585332559770904e-05,-6.759115422028117e-06,5.436942956293933e-05
-2.1685771571355872e-05,1.139984124165494e-05,3.2982939046632964e-08,5.9462829085532576e-05
-2.518833389331121e-05,1.5651141438866034e-05,8.846942364471033e-06,6.461987504735589e-05
-2.8462864065659232e-05,1.607651574886404e-05,1.0501674296392594e-05,6.385025335475802e-05
-2.8637152354349382e-05,2.149544570784201e-06,8.088648428383749e-06,5.621436866931617e-05
-2.3349984985543415e-05,-7.479888154193759e-06,3.297297553217504e-06,5.1082934078294784e-05
-1.5727729987702332e-05,3.346971425344236e-06,-2.690377868930227e-06,5.3176765504758805e-05
-1.1636263479886111e-05,2.2170108422869816e-05,-7.825484317436349e-06,5.73921570321545e-05
-1.3876661796530243e-05,3.011363878613338e-05,-1.0889731129282154e-05,6.268305151024833e-05
-1.802923907234799e-05,2.6426598196849227e-05,-1.0373739314673003e-05,6.50776710244827e-05
-1.7905778804561123e-05,2.392605529166758e-05,-7.288599135790719e-06,6.0878512158524245e-05
-1.30760163301602e-05,2.4965069314930588e-05,-5.815834356326377e-06,5.0750404625432566e-05
-1.1301251106488053e-05,2.6537089070188813e-05,-7.344539881160017e-06,3.9774338802089915e-05
-1.4998390724940691e-05,3.0354633054230362e-05,-9.837988727667835e-06,3.3445154258515686e-05
-1.8329386875848286e-05,3.9345904951915145e-05,-1.1590423127927352e-05,3.791724157053977e-05
-1.840143340814393e-05,4.442411955096759e-05,-1.0821891919476911e-05,4.5936420065118e-05
-1.6448793758172542e-05,4.3350290070520714e-05,-7.635495421709493e-06,4.910087591269985e-05
-1.7150392523035407e-05,4.5963584852870554e-05,-2.731728955041035e-06,4.792310210177675e-05
-1.9369339497643523e-05,4.8822654207469895e-05,-1.6824579915919458e-06,4.5071978092892095e-05
-2.0748155293404125e-05,3.961046604672447e-05,-5.732519639423117e-06,4.252269718563184e-05
-1.9318891645525582e-05,1.784084270184394e-05,-6.698362540191738e-06,3.7067038647364825e-05
-2.123747435689438e-05,-2.7844985197589267e-06,-2.6058692128572147e-06,3.1514689908362925e-05
-2.4363424017792568e-05,-2.1722671590396203e-05,-1.251478693120589e-06,3.220456710550934e-05
-2.4098233552649617e-05,-3.5059467336395755e-05,-2.883171873691026e-06,3.783222928177565e-05
-2.515894448151812e-05,-3.012370871147141e-05,-5.018123374611605e-06,4.331360469223e-05
-2.5247274606954306e-05,-5.967435754428152e-06,-6.813123945903499e-06,4.306692426325753e-05
-2.4217757527367212e-05,1.1287653251201846e-05,-8.021014764381107e-06,4.5025295548839495e-05
-2.6090829123859294e-05,1.5337995137088e-05,-1.3953464076621458e-05,5.652375330100767e-05
-2.53794169111643e-05,2.416139432170894e-05,-1.6111351214931346e-05,6.522904732264578e-05
-2.657906588865444e-05,4.046415415359661e-05,-9.546026376483496e-06,6.956737342989072e-05
-3.0461649657809176e-05,6.104696512920782e-05,-5.48903562958003e-06,6.928934453753754e-05
-3.234678297303617e-05,7.068192644510418e-05,-7.594295311719179e-06,6.482054595835507e-05
-2.955318268504925e-05,6.909837247803807e-05,-1.1433759027568158e-05,6.211263098521158e-05
-2.5207487851730548e-05,6.53206734568812e-05,-1.2029088793497067e-05,6.0972779465373605e-05
-2.3859563953010365e-05,6.156413292046636e-05,-1.0336106242903043e-05,5.809676440549083e-05
-2.561524343036581e-05,5.517477620742284e-05,-1.0677541467885021e-05,5.643667100230232e-05
-2.849086195055861e-05,4.8290923587046564e-05,-1.1597769116633572e-05,5.909928950131871e-05
-3.027598540938925e-05,4.048737901030108e-05,-1.1417786481615622e-05,6.212138396222144e-05
-3.1433057301910594e-05,3.070759339607321e-05,-1.0495907190488651e-05,6.355361983878538e-05
-3.066676435992122e-05,2.4300539735122584e-05,-1.0280003152729478e-05,6.126921653049067e-05
-2.949923145934008e-05,1.875611451396253e-05,-1.183295898954384e-05,6.063214095775038e-05
-3.030846710316837e-05,1.5119750059966464e-05,-1.2344675269559957e-05,6.488660437753424e-05
-3.1438361475011334e-05,1.2963326298631728e-05,-9.490783668297809e-06,6.814122752984986e-05
-2.8070644475519657e-05,3.105379164480837e-06,-6.043545454303967e-06,6.615022721234709e-05
-2.5869490855257027e-05,-1.8323609765502624e-05,-6.217732334334869e-06,5.951296407147311e-05
-2.8762240617652424e-05,-2.3623280867468566e-05,-7.109201305866009e-06,5.3794596169609576e-05
-2.7955349651165307e-05,-1.3147107438271632e-06,-8.93985361472005e-06,5.496091762324795e-05
-2.5458011805312708e-05,2.542647416703403e-05,-9.877997399598826e-06,5.8703019021777436e-05
-2.5852285034488887e-05,4.022541543236002e-05,-7.074590030242689e-06,5.934984073974192e-05
-3.0158380468492396e-05,4.766459096572362e-05,-2.5424069463042542e-06,5.882432742509991e-05
-3.523818668327294e-05,5.036569564254023e-05,-1.7844795365817845e-06,6.202535587362945e-05
-3.277882206020877e-05,5.5651711591053754e-05,-5.317190698406193e-06,6.810030754422769e-05
-2.9203649319242686e-05,6.0520214901771396e-05,-1.9843666905217106e-06,7.110286969691515e-05
-2.5008841475937515e-05,5.586345287156291e-05,4.4659318518824875e-06,7.150300370994955e-05
-2.50198627327336e-05,4.2388732254039496e-05,4.479732979234541e-06,7.095809269230813e-05
-2.8423781259334646e-05,3.2729978556744754e-05,-6.099281222304853e-07,6.924567423993722e-05
-2.9356608138186857e-05,1.845863152993843e-05,-7.1027211561158765e-06,6.32948285783641e-05
-3.171605567331426e-05,-1.94146759895375e-05,-1.420868829882238e-05,5.906966907787137e-05
-3.561827543308027e-05,-5.369454083847813e-05,-1.6829029846121557e-05,6.119365571066737e-05
-3.814872616203502e-05,-6.626599497394636e-05,-1.638039611862041e-05,5.8953188272425905e-05
-3.834999006357975e-05,-4.75263805128634e-05,-2.0033168766531162e-05,5.433679689303972e-05
-3.6585515772458166e-05,-1.4912707229086664e-05,-2.4188750103348866e-05,5.446649811347015e-05
-3.4022483305307105e-05,1.4894456398906186e-05,-2.3723123376839794e-05,5.647936632158235e-05
-3.382066643098369e-05,3.829912020592019e-05,-2.0526937078102492e-05,5.847117427038029e-05
-3.434624886722304e-05,5.254843199509196e-05,-1.9974357201135717e-05,6.036414924892597e-05
-3.492557880235836e-05,6.056605707271956e-05,-2.197375215473585e-05,6.219572969712317e-05
-3.506062785163522e-05,6.497417052742094e-05,-2.39248347497778e-05,6.253295578062534e-05
-3.177125472575426e-05,6.408816989278421e-05,-2.282194691360928e-05,6.257739732973278e-05
-2.3770877305651084e-05,5.624857294606045e-05,-1.770233575371094e-05,6.521409522974864e-05
-1.870106643764302e-05,5.009170126868412e-05,-1.1949188774451613e-05,6.891790690133348e-05
-1.9761289877351373e-05,4.3417549022706226e-05,-1.0699949598347303e-05,7.116197230061516e-05
-1.9853367120958865e-05,3.248609209549613e-05,-1.4346689567901194e-05,7.299605204025283e-05
-1.473695465392666e-05,2.0800556740141474e-05,-1.948075441760011e-05,7.45945144444704e-05
-9.421764843864366e-06,1.5839603292988613e-05,-2.2196623831405304e-05,7.182613626355305e-05
-7.32581702322932e-06,1.4570066923624836e-05,-1.9940031052101403e-05,6.856401159893721e-05
-9.01536532182945e-06,1.3540612599172164e-05,-1.682698530203197e-05,7.057779293972999e-05
-1.5154320863075554e-05,1.7462365576648153e-05,-1.687138865236193e-05,7.057579205138609e-05
-2.37113781622611e-05,1.8150922187487595e-05,-1.7949569155462086e-05,6.599241896765307e-05
-2.7371626856620423e-05,1.001637338049477e-05,-1.7338432371616364e-05,6.282686808845028e-05
-2.531560676288791e-05,2.58548311649065e-06,-1.6367703210562468e-05,6.30141730653122e-05
-2.5336128601338714e-05,1.4829696510787471e-06,-1.8446125977789052e-05,6.458070129156113e-05
-2.618171311041806e-05,9.411672181158792e-06,-2.2210266251931898e-05,6.410384958144277e-05
-2.4352963009732775e-05,1.732956661726348e-05,-2.5345530957565643e-05,6.384508014889434e-05
-2.0716979634016752e-05,2.3337646780419163e-05,-2.717346796998754e-05,6.528403173433617e-05
-1.822319973143749e-05,2.3942233383422717e-05,-2.7339576263329946e-05,6.589104305021465e-05
-1.8687078409129754e-05,1.3269041119201574e-05,-2.3562111891806126e-05,6.4864732848946e-05
-1.6880732800927944e-05,2.4798048343654955e-06,-1.6629292076686397e-05,6.436571857193485e-05
-1.2949824849783909e-05,5.2277714530646335e-06,-8.893080121197272e-06,6.597407627850771e-05
-1.4111373275227379e-05,1.5280689694918692e-05,-1.6389222992074792e-06,6.640808715019375e-05
-1.947588680195622e-05,2.8895819923491217e-05,2.293692205057596e-06,6.379338447004557e-05
-2.223992851213552e-05,3.436375118326396e-05,3.7386066651379224e-06,5.806440094602294e-05
-2.0464860426727682e-05,2.6344068828620948e-05,4.479279596125707e-06,5.203334876568988e-05
-1.769718983268831e-05,2.0179591956548393e-05,9.233182936441153e-06,4.7169352910714224e-05
-1.6865928046172485e-05,2.565941213106271e-05,1.7670097804511897e-05,4.519907452049665e-05
-2.0087003576918505e-05,3.373616709723137e-05,2.2311276552500203e-05,4.613748023984954e-05
-2.275340011692606e-05,3.6501307477010414e-05,2.0688659787992947e-05,4.966181222698651e-05
-2.2352256564772688e-05,4.322006498114206e-05,1.684005474089645e-05,5.221397805144079e-05
-2.1184725483180955e-05,5.432448233477771e-05,1.5352905393228866e-05,4.8463032726431265e-05
-2.060038059426006e-05,5.949566912022419e-05,1.570885615365114e-05,4.0933686250355095e-05
-1.878536568256095e-05,5.567162952502258e-05,8.197097486117855e-06,3.52772549376823e-05
-1.674549639574252e-05,5.012296969653107e-05,-7.269137768162182e-06,3.380296038812958e-05
-1.6568536011618562e-05,3.840319550363347e-05,-1.833804344641976e-05,3.4127395338146016e-05
-1.73810294654686e-05,2.695476905500982e-05,-2.119229975505732e-05,3.295842179795727e-05
-1.9724016965483315e-05,2.8292653951211832e-05,-1.7101807316066697e-05,3.356389788677916e-05
-2.1126325009390712e-05,3.570369153749198e-05,-1.1730741789506283e-05,3.984960130765103e-05
-2.054977449006401e-05,3.361520793987438e-05,-1.2701096238743048e-05,4.189982428215444e-05
-1.811432775866706e-05,1.624908145458903e-05,-1.9454821085673757e-05,3.881395605276339e-05
-1.6417441656813025e-05,-6.5819376686704345e-06,-2.2107527911430225e-05,3.8977188523858786e-05
-1.7582042346475646e-05,-2.084075276798103e-05,-1.62032047228422e-05,4.216628076392226e-05
-2.1196461602812633e-05,-1.9171542589901946e-05,-1.2621275345736649e-05,4.5846725697629154e-05
-2.321551255590748e-05,-4.985467057849746e-06,-1.3527807823265903e-05,4.715350951300934e-05
-2.0407453121151775e-05,8.107555913738906e-06,-1.0254943845211528e-05,4.9861839215736836e-05
-1.5993860870366916e-05,1.7332773495581932e-05,-1.885630126707838e-06,5.5174441513372585e-05
-1.8062011804431677e-05,2.623427462822292e-05,7.4869353738904465e-06,5.676142609445378e-05
-2.6614685339154676e-05,3.735149584827013e-05,1.4026357348484453e-05,5.411344682215713e-05
-3.219511199858971e-05,4.368149893707596e-05,1.6554688045289367e-05,4.8127654736163095e-05
-3.400760760996491e-05,5.191793025005609e-05,1.5704732504673302e-05,4.239618647261523e-05
-3.1454572308575734e-05,5.618423892883584e-05,8.226451427617576e-06,3.948999074054882e-05
-2.5672712581581436e-05,5.7538582041161135e-05,-4.931018793286057e-06,4.2726391257019714e-05
-2.0189319911878556e-05,6.322839908534661e-05,-1.510873426013859e-05,4.924098902847618e-05
-2.0200066501274705e-05,7.078731869114563e-05,-1.6885025615920313e-05,5.485539077199064e-05
-2.6161520509049296e-05,6.675571057712659e-05,-1.5020863429526798e-05,5.7959798141382635e-05
-3.351077975821681e-05,4.972911483491771e-05,-1.6033689462346956e-05,5.910683103138581e-05
-4.008718315162696e-05,3.590470441849902e-05,-1.9411309040151536e-05,5.715513543691486e-05
-4.477802576730028e-05,2.63878027908504e-05,-2.138712807209231e-05,5.351065192371607e-05
-4.5610689994646236e-05,1.529394467070233e-05,-1.9571663870010525e-05,5.438229345600121e-05
-4.1040038922801614e-05,2.100964366036351e-06,-1.5724564946140163e-05,5.7151803048327565e-05
-3.545415893313475e-05,-2.162290911655873e-06,-1.1811837794084568e-05,5.574940223596059e-05
-3.331665357109159e-05,6.08967002335703e-06,-8.072979653661605e-06,5.312663415679708e-05
-3.4555880120024085e-05,2.2004656784702092e-05,-5.597275048785377e-06,5.616763883153908e-05
-3.628018021117896e-05,3.171970456605777e-05,-7.829105925338808e-06,6.334114004857838e-05
-3.3290380088146776e-05,3.783902866416611e-05,-7.917160473880358e-06,6.931203824933618e-05
-2.8201200620969757e-05,4.144199192523956e-05,-7.252115210576449e-06,7.27585211279802e-05
-2.8476963052526116e-05,3.46529959642794e-05,-1.1554151569725946e-05,7.928693958092481e-05
-3.0249198971432634e-05,1.2063074791512918e-05,-1.8564232959761284e-05,8.732575952308252e-05
-3.337948874104768e-05,-5.574469923885772e-06,-2.42722817347385e-05,8.773549780016765e-05
-3.6155783163849264e-05,-7.250785074575106e-06,-2.003945701289922e-05,8.229589730035514e-05
-3.7634887121384963e-05,6.912017397553427e-06,-1.297647031606175e-05,8.619296568213031e-05
-3.8700625736964867e-05,2.7276390028418973e-05,-1.072168925020378e-05,9.296095231547952e-05
-4.051485302625224e-05,3.7433575926115736e-05,-1.3545137335313484e-05,9.364791185362265e-05
-4.356585122877732e-05,3.79457778763026e-05,-1.8767888832371682e-05,8.98735670489259e-05
-4.469471605261788e-05,3.664908217615448e-05,-2.3401731596095487e-05,8.709549729246646e-05
-4.09795502491761e-05,3.4450717066647485e-05,-2.8150294383522123e-05,8.558492845622823e-05
-3.608575207181275e-05,3.667147029773332e-05,-2.8869579182355665e-05,8.29414784675464e-05
-3.431825098232366e-05,4.2966501496266574e-05,-2.2258587705437094e-05,8.137246913975105e-05
-3.158964682370424e-05,4.0894021367421374e-05,-1.8103453840012662e-05,7.689320045756176e-05
-2.9558985261246562e-05,2.5511812054901384e-05,-2.2954640371608548e-05,6.944329652469605e-05
-3.2585634471615776e-05,1.0153750736208167e-05,-2.8437047149054706e-05,5.967536708340049e-05
-3.832297443295829e-05,1.5648319049432757e-06,-2.455294998071622e-05,4.972652823198587e-05
-4.0981096390169114e-05,-1.7900189277497702e-06,-1.4222818208509125e-05,4.0727289160713553e-05
-3.9966602344065905e-05,5.523130312212743e-06,-5.276559022604488e-06,3.416008985368535e-05
-3.61913007509429e-05,1.3105494872434065e-05,-5.46127637335303e-07,2.977720941998996e-05
-2.999627213284839e-05,3.7891466035944177e-06,-1.6128383606428542e-07,2.8291362468735315e-05
-2.435768510622438e-05,-1.4676246792078018e-05,-1.071904421223735e-06,3.0716677429154515e-05
-1.779048216121737e-05,-1.7225236661033705e-05,-2.7093883545603603e-06,3.421675864956342e-05
-7.940756404423155e-06,4.1702505768626e-06,-3.912332431355026e-06,3.7587462429655716e-05
2.3027166662359377e-06,3.1423711334355175e-05,-6.934626981092151e-06,4.085959881194867e-05
8.26698487799149e-06,4.182309203315526e-05,-1.1182082744198851e-05,4.150973109062761e-05
9.317707736045122e-06,3.960642425226979e-05,-1.4362307410920039e-05,4.2904743168037385e-05
7.2724787969491445e-06,4.025164889753796e-05,-2.0418385247467086e-05,4.9893900722963735e-05
2.8076390208298108e-06,4.3310697947163135e-05,-2.522016438888386e-05,6.255939661059529e-05
6.297687491496617e-07,3.433780511841178e-05,-2.5141440346487798e-05,7.11878456058912e-05
-4.596819508151384e-06,2.0388781194924377e-05,-2.6269923182553612e-05,6.989375833654776e-05
-1.4642837413703091e-05,6.539191872434458e-06,-2.867760122171603e-05,6.67418134980835e-05
-2.7395439246902242e-05,-5.572171630774392e-06,-3.082307375734672e-05,6.133847637102008e-05
-3.7298432289389893e-05,-2.044430402747821e-05,-3.149829353787936e-05,5.209556547924876e-05
-3.7107456591911614e-05,-3.625481986091472e-05,-3.511216345941648e-05,4.937474295729771e-05
-3.0135146516840905e-05,-3.92740112147294e-05,-3.941070826840587e-05,5.424102346296422e-05
-2.793832572933752e-05,-2.754473825916648e-05,-3.652448140201159e-05,5.8281366364099085e-05
-3.28109017573297e-05,-1.4323523828352336e-05,-2.738234616117552e-05,5.933579814154655e-05
-3.628540434874594e-05,-2.5041210847120965e-06,-1.5721769159426913e-05,5.9134355979040265e-05
-3.735613790922798e-05,1.0270397069689352e-05,-2.5120016289292835e-06,6.108793604653329e-05
-3.797765020863153e-05,2.2665295546175912e-05,1.2050914847350214e-05,5.868035077583045e-05
-3.797674798988737e-05,3.4877437428804114e-05,2.3122494894778356e-05,5.4034720960771665e-05
-3.488126822048798e-05,5.3852512792218477e-05,2.7733389288187027e-05,5.298605901771225e-05
-3.164622467011213e-05,7.472672587027773e-05,2.7019978006137535e-05,5.4881635151105e-05
-2.9392258511506952e-05,8.54807294672355e-05,2.8434136766009033e-05,5.908745151828043e-05
-2.88050123344874e-05,8.396102930419147e-05,3.295348506071605e-05,6.252469029277563e-05
-2.9704615371883847e-05,7.191722397692502e-05,3.1056184525368735e-05,6.272138853091747e-05
-3.014597859873902e-05,5.8203360822517425e-05,1.7841373846749775e-05,6.076138743082993e-05
