-4.9203590606339276e-05,1.6907489452933078e-06,-2.4766448404989205e-05,2.2157355488161556e-05
-5.2917766879545525e-05,4.939762447975227e-07,-2.649323141667992e-05,2.5537832698319107e-05
-5.057577436673455e-05,8.023211194085889e-06,-2.609045259305276e-05,2.8120399292674847e-05
-5.0070964789483696e-05,2.175194094888866e-05,-2.2004289348842576e-05,2.5622010070947e-05
-5.418395812739618e-05,3.45119769917801e-05,-2.202315954491496e-05,2.1074371034046635e-05
-6.085859422455542e-05,4.637720849132165e-05,-2.1661866412614472e-05,2.1021642169216648e-05
-6.636267789872363e-05,6.0703536291839555e-05,-2.2162972527439706e-05,2.092013710353058e-05
-6.987209781073034e-05,7.537550845881924e-05,-2.3156146198743954e-05,1.9298471670481376e-05
-7.165500574046746e-05,8.580830763094127e-05,-2.3758530005579814e-05,2.0187831978546456e-05
-7.09003652445972e-05,8.485480066156015e-05,-2.2056685338611715e-05,2.3790262275724672e-05
-6.49771245662123e-05,7.328744686674327e-05,-2.1137000658200122e-05,2.5145291147055104e-05
-5.8982648624805734e-05,6.332384509732947e-05,-2.202845280407928e-05,2.7234586013946682e-05
-5.897962910239585e-05,5.7832643506117165e-05,-2.520097950764466e-05,3.037585520360153e-05
-6.320366082945839e-05,5.2111048717051744e-05,-2.82142009382369e-05,2.9873326639062725e-05
-6.478289287770167e-05,4.3218144128331915e-05,-2.708855754463002e-05,2.682631202333141e-05
-6.160861084936187e-05,3.243578612455167e-05,-2.4787679649307393e-05,2.5661933250376023e-05
-5.684256393578835e-05,2.670555841177702e-05,-2.387011409155093e-05,2.7450601919554174e-05
-5.509034599526785e-05,2.9247463317005895e-05,-2.466409932821989e-05,2.8044671125826426e-05
-5.9389894886408e-05,3.48633220710326e-05,-2.595818295958452e-05,2.513471190468408e-05
-6.446764746215194e-05,4.086793342139572e-05,-2.744859921222087e-05,2.365691398154013e-05
-6.329201278276742e-05,4.4141910620965064e-05,-2.7350708478479646e-05,2.8248414309928194e-05
-5.6445995141984895e-05,4.024858571938239e-05,-2.7553867766982876e-05,3.2762527553131804e-05
-5.369009522837587e-05,3.421743895160034e-05,-2.6303496269974858e-05,3.1555380701320246e-05
-5.5236450862139463e-05,3.2497398933628574e-05,-2.439403579046484e-05,2.7903372028958984e-05
-5.627986683975905e-05,3.762209598789923e-05,-2.5176277631544508e-05,2.715414848353248e-05
-5.96990721533075e-05,4.57538480986841e-05,-2.704182952584233e-05,2.722415592870675e-05
-6.385410961229354e-05,4.743769750348292e-05,-2.6069854357047006e-05,2.7163097911397927e-05
-6.544845382450148e-05,3.8301128370221704e-05,-2.3652957679587416e-05,2.5493760404060595e-05
-7.023448415566236e-05,2.808182398439385e-05,-2.502489587641321e-05,2.490876431693323e-05
-7.222571730380878e-05,2.0690176825155504e-05,-2.5587052732589655e-05,2.620053965074476e-05
-7.049686246318743e-05,2.00239537662128e-05,-2.332763142476324e-05,2.278287684021052e-05
-7.059250492602587e-05,3.184749584761448e-05,-2.4216575184254907e-05,2.0014347683172673e-05
-7.022856152616441e-05,5.169223732082173e-05,-2.549814416852314e-05,2.039350692939479e-05
-6.744360143784434e-05,6.56562260701321e-05,-2.5221148462151177e-05,1.9980137949460186e-05
-6.211785512277856e-05,5.479059836943634e-05,-2.3049891751725227e-05,1.9805089323199354e-05
-5.52443707420025e-05,2.2109774363343604e-05,-2.1876949176657945e-05,1.980886736419052e-05
-5.031368345953524e-05,-1.378178239974659e-05,-2.149715510313399e-05,1.9036418962059543e-05
-4.953559619025327e-05,-3.6043587897438556e-05,-1.9621309547801502e-05,1.589289058756549e-05
-5.041883559897542e-05,-3.667836426757276e-05,-1.8306362107978202e-05,1.538506694487296e-05
-4.712497320724651e-05,-2.1987974832882173e-05,-1.921997500176076e-05,2.0424111426109448e-05
-3.961400580010377e-05,-4.671680017054314e-06,-2.036627847701311e-05,2.6000865545938723e-05
-3.16076293529477e-05,1.0840761206054594e-05,-2.0520916223176755e-05,2.7928135750698857e-05
-2.621194471430499e-05,2.385701191087719e-05,-2.218926601926796e-05,2.5136105250567198e-05
-2.548711927374825e-05,3.330272375023924e-05,-2.585015863587614e-05,2.1614407160086557e-05
-2.7044943635701202e-05,3.952965926146135e-05,-3.0911793146515265e-05,2.0271345420042053e-05
-2.617967220430728e-05,4.071399598615244e-05,-3.351449049660005e-05,2.2845079001854174e-05
-2.3601323846378364e-05,3.576804374461062e-05,-3.3450171031290665e-05,2.4927705453592353e-05
-2.5607863790355623e-05,3.569136606529355e-05,-3.178022598149255e-05,2.5986299078795128e-05
-3.048832695640158e-05,4.928238195134327e-05,-2.7607813535723835e-05,2.7803216653410345e-05
-3.3185857319040224e-05,6.229631253518164e-05,-2.478414899087511e-05,2.9709868613281287e-05
-3.372900755493902e-05,6.174459849717095e-05,-2.712718014663551e-05,2.779854003165383e-05
-3.9996171835809946e-05,5.150312063051388e-05,-3.247946733608842e-05,1.7478350855526514e-05
-5.390339720179327e-05,4.400433681439608e-05,-3.6931265640305355e-05,8.616406375949737e-06
-6.852213846286759e-05,4.238713881932199e-05,-3.8175923691596836e-05,7.265110525622731e-06
-7.892376015661284e-05,4.021772474516183e-05,-3.949245001422241e-05,1.1219644875382073e-05
-8.065926522249356e-05,3.86084575438872e-05,-3.916692367056385e-05,1.7729269529809244e-05
-7.346436905208975e-05,4.184503632131964e-05,-3.797193130594678e-05,2.5222490876330994e-05
-6.452485104091465e-05,4.019588595838286e-05,-3.797887620748952e-05,3.060131712118164e-05
-6.232863961486146e-05,2.8752428988809697e-05,-3.7403795431600884e-05,3.1720512197352946e-05
-6.338246021186933e-05,2.2024676582077518e-05,-3.350060433149338e-05,3.123115311609581e-05
-5.8810172049561515e-05,2.3507807782152668e-05,-2.8385715268086642e-05,2.8323758670012467e-05
-5.116969259688631e-05,2.5245755750802346e-05,-2.6787758542923257e-05,2.363726707699243e-05
-4.4027914555044845e-05,3.0537885322701186e-05,-2.768000922515057e-05,2.0655723346862942e-05
-4.254531813785434e-05,4.998296935809776e-05,-2.828084870998282e-05,2.2681440896121785e-05
-4.554158658720553e-05,7.560203812317923e-05,-2.7374186174711213e-05,2.786943150567822e-05
-5.045330181019381e-05,8.448187145404518e-05,-2.8127848054282367e-05,3.025469050044194e-05
-5.196202619117685e-05,6.441582081606612e-05,-2.978460179292597e-05,2.824049261107575e-05
-4.780696690431796e-05,2.6030593289760873e-05,-3.1070383556652814e-05,2.579067222541198e-05
-4.274999810149893e-05,-1.9274423266324447e-06,-2.9258868380566128e-05,2.3324006178881973e-05
-4.063479354954325e-05,-7.910563908808399e-06,-2.507796853024047e-05,2.043365384452045e-05
-4.270635690772906e-05,-7.074566838127794e-06,-2.2291969798970968e-05,1.9148224964737892e-05
-4.621897096512839e-05,-7.580686542496551e-06,-2.2020258256816305e-05,2.0926279830746353e-05
-4.8863847041502595e-05,-4.0069066926662344e-06,-2.324477281945292e-05,2.689635584829375e-05
-4.9306152504868805e-05,3.262914788138005e-06,-2.5627870854805224e-05,3.307927181595005e-05
-4.9092286644736305e-05,9.123486051976215e-06,-2.7577936634770595e-05,3.356423258082941e-05
-4.7617286327295005e-05,9.999484063882846e-06,-2.791668703139294e-05,2.8553336960612796e-05
-4.5757260522805154e-05,7.862193342589308e-06,-2.7917652914766222e-05,2.3104141291696578e-05
-4.512899977271445e-05,7.600639492011396e-06,-2.6433091989019886e-05,2.292017961735837e-05
-4.513011663220823e-05,7.822512998245656e-06,-2.4355944333365187e-05,2.786461845971644e-05
-4.805290882359259e-05,7.977237146405969e-06,-2.2528898625751026e-05,3.123713031527586e-05
-5.638290531351231e-05,1.2490020708355587e-05,-2.4339102310477756e-05,2.9020766305620782e-05
-6.540733011206612e-05,2.509149089746643e-05,-2.813279934343882e-05,2.410240631434135e-05
-6.840565038146451e-05,3.6302011722000316e-05,-3.075279892073013e-05,2.7198346288059838e-05
-6.0947961173951626e-05,3.86807405448053e-05,-3.2558953535044566e-05,3.420419670874253e-05
-5.671325561706908e-05,3.466477937763557e-05,-3.401062713237479e-05,3.3748849091352895e-05
-6.193959416123107e-05,3.070573802688159e-05,-3.653432213468477e-05,2.7598671294981614e-05
-6.818286055931821e-05,3.2897623896133155e-05,-3.669501529657282e-05,2.2878943127579987e-05
-6.870911602163687e-05,3.2487427233718336e-05,-3.4987479011761025e-05,2.2885749785928056e-05
-6.238972127903253e-05,2.7058851628680713e-05,-3.265145278419368e-05,2.5946961613954045e-05
-5.9186204452998936e-05,2.2642478143097833e-05,-3.224137253710069e-05,2.955696254502982e-05
-6.32110532023944e-05,2.131755718437489e-05,-3.322442717035301e-05,2.821244743245188e-05
-6.899079744471237e-05,2.019743806158658e-05,-3.4965061786351725e-05,2.1529562218347564e-05
-6.844262679805979e-05,2.1865160306333564e-05,-3.7903391785221174e-05,1.6829726519063115e-05
-6.301490066107363e-05,2.7564501579036005e-05,-3.72980757674668e-05,1.8118338630301878e-05
-5.8932397223543376e-05,3.3600390452193096e-05,-3.1424326152773574e-05,2.14045139728114e-05
-5.5458371207350865e-05,3.752532575163059e-05,-2.6386866011307575e-05,2.3639207938686013e-05
-5.1254330173833296e-05,3.918988659279421e-05,-2.708112333493773e-05,2.268993375764694e-05
-4.6958000893937424e-05,3.901662057614885e-05,-2.7064977984991856e-05,1.9474216969683766e-05
-4.1766274080146104e-05,3.8319616578519344e-05,-2.2581525627174415e-05,1.5925685147522017e-05
-3.68569562851917e-05,3.817231845459901e-05,-1.71585452335421e-05,1.3617047443403862e-05
-3.572314017219469e-05,3.739550811587833e-05,-1.4120872947387397e-05,1.3950138054497074e-05
-3.7460973544511944e-05,3.824479063041508e-05,-1.1610063666012138e-05,1.5991958207450807e-05
-3.877825292875059e-05,3.6442099371924996e-05,-1.3586436580226291e-05,1.5341876860475168e-05
-3.94915696233511e-05,3.0630333640147e-05,-2.0537620002869517e-05,1.3726484212384094e-05
-3.9491533243563026e-05,2.777203008008655e-05,-2.4998997105285525e-05,1.58318507601507e-05
-4.0074781281873584e-05,2.5940245905076154e-05,-2.5153272872557864e-05,1.7636537450016476e-05
-3.98783668060787e-05,2.0272696929168887e-05,-2.641028186189942e-05,1.9553584934328683e-05
-3.6270263080950826e-05,2.0033136024721898e-05,-2.9730981623288244e-05,1.9706980310729705e-05
-3.475534322205931e-05,2.4872468202374876e-05,-2.9429565984173678e-05,1.5253381207003258e-05
-3.4495686122681946e-05,2.9310987883945927e-05,-2.8185517294332385e-05,1.3528177078114823e-05
-3.245404877816327e-05,3.337317320983857e-05,-2.851170938811265e-05,1.6392463294323534e-05
-3.167138129356317e-05,3.151196506223641e-05,-2.853048499673605e-05,2.047161069640424e-05
-3.5690271033672616e-05,2.6188210540567525e-05,-2.608987779240124e-05,2.353489981032908e-05
-3.939197267754935e-05,2.744529592746403e-05,-2.396415948169306e-05,2.562161535024643e-05
-4.36189366155304e-05,3.442655724938959e-05,-2.7315394618199207e-05,2.812040656863246e-05
-5.168793359189294e-05,4.251249993103556e-05,-3.184893648722209e-05,2.675075302249752e-05
-5.3993117035133764e-05,4.594829078996554e-05,-3.308012310299091e-05,2.354124626435805e-05
-5.292873902362771e-05,4.008642281405628e-05,-3.304009442217648e-05,2.303491419297643e-05
-5.231885006651282e-05,2.9934024496469647e-05,-3.1835039408179e-05,2.52101308433339e-05
-5.5318796512437984e-05,2.4917617338360287e-05,-2.8750750061590225e-05,2.6331139451940544e-05
-5.8732679462991655e-05,2.985801620525308e-05,-2.817515814967919e-05,2.8924248908879235e-05
-5.8078672736883163e-05,3.909824226866476e-05,-3.158045365125872e-05,3.3960426662815735e-05
-5.419713124865666e-05,4.3947169615421444e-05,-3.3991098462138325e-05,3.6450270272325724e-05
-5.250810500001535e-05,4.221407652948983e-05,-3.1123545340960845e-05,3.4724689612630755e-05
-5.5256048653973266e-05,3.6103694583289325e-05,-2.609504917927552e-05,3.175009260303341e-05
-5.520669583347626e-05,2.5656823709141463e-05,-2.2718571926816367e-05,3.040731644432526e-05
-4.823556446353905e-05,1.3723906704399269e-05,-2.100077472277917e-05,3.0257262551458552e-05
-3.762284177355468e-05,9.627567123970948e-06,-1.9229944882681593e-05,2.915704681072384e-05
-3.053140972042456e-05,2.029601819231175e-05,-1.705264367046766e-05,2.543083974160254e-05
-2.7502328521222807e-05,3.809867121162824e-05,-1.6946238247328438e-05,2.08982946787728e-05
-2.9880135116400197e-05,5.174658144824207e-05,-1.9816097847069614e-05,1.7732614651322365e-05
-4.110120062250644e-05,5.6021926866378635e-05,-2.53856251219986e-05,1.6576328562223352e-05
-5.676146247424185e-05,5.4530752095161006e-05,-3.141259730909951e-05,1.969666118384339e-05
-6.615715392399579e-05,5.253968629403971e-05,-3.172295691911131e-05,2.2447302399086766e-05
-6.330579344648868e-05,5.129423152538948e-05,-2.7671423595165834e-05,1.7547698007547297e-05
-5.6534870964242145e-05,5.370906364987604e-05,-2.3382041035802104e-05,1.1867579814861529e-05
-5.1022652769461274e-05,5.6553373724455014e-05,-2.042508276645094e-05,1.4078031199460384e-05
-4.488822378334589e-05,5.864339982508682e-05,-1.927117773448117e-05,2.0615521862055175e-05
-4.2445401049917564e-05,6.311562174232677e-05,-1.8021684809355065e-05,2.219748421339318e-05
-4.182281918474473e-05,7.370537059614435e-05,-1.9012499251402915e-05,2.061731538560707e-05
-4.1599476389819756e-05,8.37732877698727e-05,-2.097660217259545e-05,2.0470170056796633e-05
-3.9380793168675154e-05,8.19829001557082e-05,-2.1133635527803563e-05,2.3686450731474906e-05
-4.043853550683707e-05,7.056988397380337e-05,-1.7045504137058742e-05,2.5125937099801376e-05
-4.611364784068428e-05,5.8466335758566856e-05,-1.495393917139154e-05,2.5353463570354506e-05
-4.838142922380939e-05,5.201009116717614e-05,-1.655348387430422e-05,2.4388313249801286e-05
-4.792306208400987e-05,4.302284651203081e-05,-1.9994342437712476e-05,2.450559986755252e-05
-4.771755629917607e-05,3.246511914767325e-05,-2.122561818396207e-05,2.8511411073850468e-05
-4.442482168087736e-05,2.7131449314765632e-05,-1.8138003724743612e-05,3.600058698793873e-05
-4.083607564098202e-05,2.400553785264492e-05,-1.4076694242248777e-05,4.3565567466430366e-05
-4.0862698369892314e-05,2.13440325751435e-05,-1.3484416740539018e-05,4.529753641691059e-05
-4.144266131334007e-05,2.0173061784589663e-05,-1.7893380572786555e-05,4.215220542391762e-05
-4.253006773069501e-05,1.8699920474318787e-05,-2.3147067622630857e-05,3.9109036151785403e-05
-4.57330206700135e-05,1.9702070858329535e-05,-2.9211827495601028e-05,3.9223166822921485e-05
-4.847480158787221e-05,3.098545130342245e-05,-3.255878255004063e-05,3.883986209984869e-05
-4.727686973637901e-05,4.752491804538295e-05,-3.254484909120947e-05,3.5449800634523854e-05
-4.478476694202982e-05,5.994335515424609e-05,-2.9999251637491398e-05,2.804035466397181e-05
-4.391490074340254e-05,5.952100400463678e-05,-2.5397526769666e-05,2.2537224140251055e-05
-4.8106539907166734e-05,4.486756006372161e-05,-2.309046612936072e-05,2.1414964066934772e-05
-5.765941386925988e-05,2.7771586246672086e-05,-2.568337913544383e-05,2.1216683308011852e-05
-6.592584395548329e-05,1.3350588233151939e-05,-2.973460686916951e-05,1.6594993212493137e-05
-6.907965871505439e-05,6.895186857036606e-07,-2.986172512464691e-05,1.2867158147855662e-05
-7.139878289308399e-05,-2.4564576506236335e-06,-2.7717074772226624e-05,1.421761953679379e-05
-7.504148379666731e-05,4.95904987474205e-06,-3.199643469997682e-05,1.5196742424450349e-05
-7.317950075957924e-05,9.666686310083605e-06,-3.3882981369970366e-05,1.5029372661956586e-05
-7.039290358079597e-05,9.111869985645171e-06,-3.1134477467276156e-05,1.463894841435831e-05
-7.79225883889012e-05,8.81814139574999e-06,-2.755502464424353e-05,1.4824596291873604e-05
-8.025165152503178e-05,1.088977023755433e-05,-2.5631776225054637e-05,1.8201804778072983e-05
-7.2511873440817e-05,1.835036528063938e-05,-2.8469647077145055e-05,2.3317210434470326e-05
-6.784829747630283e-05,3.1734874937683344e-05,-2.988644155266229e-05,2.5750285203685053e-05
-6.659446808043867e-05,4.4248212361708283e-05,-2.9413942684186623e-05,2.2741562133887783e-05
-6.0926322476007044e-05,4.166594226262532e-05,-2.653556839504745e-05,1.978600448637735e-05
-5.446133582154289e-05,2.6579828045214526e-05,-2.4149978344212286e-05,1.7650809240876697e-05
-5.235404023551382e-05,1.6035191947594285e-05,-2.5493611246929504e-05,1.576935210323427e-05
-5.205292109167203e-05,1.8910557628259994e-05,-2.7269896236248314e-05,1.5369663742603734e-05
-4.878861000179313e-05,2.9363713110797107e-05,-2.569586649769917e-05,1.485506072640419e-05
-4.298824933357537e-05,3.371595812495798e-05,-2.4054157620412298e-05,1.4106227354204748e-05
-3.562428173609078e-05,2.642301842570305e-05,-2.5196468413923867e-05,1.1787886251113378e-05
-2.8099471819587052e-05,1.6323816453223117e-05,-2.753257103904616e-05,1.119219268730376e-05
-2.5673720301711e-05,1.454703578929184e-05,-2.6343737772549503e-05,1.4471465874521527e-05
-2.858071275113616e-05,1.9929047994082794e-05,-2.2148768039187416e-05,1.8921356968348846e-05
-3.148096220684238e-05,2.0730656615342014e-05,-2.165365185646806e-05,2.0549079636111856e-05
-3.0528393835993484e-05,8.27957319415873e-06,-2.6586389139993116e-05,1.9560280634323135e-05
-2.999567732331343e-05,-1.109728509618435e-05,-3.070957973250188e-05,1.687898111413233e-05
-3.542134800227359e-05,-2.5566954718669876e-05,-2.9889937650295906e-05,1.445435918867588e-05
-4.4159445678815246e-05,-3.302164623164572e-05,-2.6670499210013077e-05,1.4441747225646395e-05
-4.8432597395731136e-05,-3.7017154681961983e-05,-2.5987768822233193e-05,1.892053842311725e-05
-4.866240851697512e-05,-3.624130113166757e-05,-2.8344045858830214e-05,2.519198096706532e-05
-4.597251972882077e-05,-2.734830923145637e-05,-3.064660995732993e-05,2.926754496002104e-05
-4.007557072327472e-05,-1.1774013728427235e-05,-3.077527799177915e-05,3.227466731914319e-05
-3.199870843673125e-05,6.261881480895681e-06,-2.633725307532586e-05,3.5389028198551387e-05
-2.8405595003277995e-05,2.582902743597515e-05,-2.432672044960782e-05,3.713599653565325e-05
-2.9216867915238254e-05,5.5514574341941625e-05,-2.7364045308786444e-05,3.571012712200172e-05
-3.0220158805605024e-05,9.378690447192639e-05,-3.008416388183832e-05,3.118016684311442e-05
-3.2833766454132274e-05,0.00012066608906025067,-3.064482007175684e-05,2.62736102740746e-05
-4.127790089114569e-05,0.00013006980589125305,-2.7895881430595182e-05,2.382146158197429e-05
-4.91184982820414e-05,0.00012898999557364732,-2.2407046344596893e-05,2.1741750970249996e-05
-5.51204830117058e-05,0.00012111977412132546,-1.6420499378000386e-05,2.1900563297094777e-05
-6.417663826141506e-05,0.00010962622764054686,-1.4303035641205497e-05,2.7733494789572433e-05
-6.949473754502833e-05,9.815711382543668e-05,-1.7418275092495605e-05,3.1824289180804044e-05
-6.790350744267926e-05,9.42026890697889e-05,-2.298019899171777e-05,3.0165259886416607e-05
-6.388699694070965e-05,0.00010660941188689321,-2.8319725970504805e-05,2.6611945941112936e-05
-6.174818554427475e-05,0.00012893648818135262,-3.085911521338858e-05,2.4534792828490026e-05
-6.31122529739514e-05,0.00013866678636986762,-3.018751522176899e-05,2.4734821636229753e-05
-6.478124123532325e-05,0.00011884942796314135,-2.7494397727423348e-05,2.720429256442003e-05
-6.440337165258825e-05,7.59318281779997e-05,-2.4793165721348487e-05,2.8929123800480738e-05
-6.393934017978609e-05,2.6367291866336018e-05,-2.515044434403535e-05,2.6925232305075042e-05
-6.544481584569439e-05,-1.5641517165931873e-05,-2.9399103368632495e-05,2.302811117260717e-05
-6.8627305154223e-05,-4.639681355911307e-05,-3.146868766634725e-05,2.0145280359429307e-05
-6.767563172616065e-05,-6.982152990531176e-05,-2.7663538276101463e-05,1.8768125300994143e-05
-6.0611582739511505e-05,-8.303493814310059e-05,-2.3556869564345106e-05,2.0385290554258972e-05
-5.2883166063111275e-05,-8.828712452668697e-05,-2.4265496904263273e-05,2.587738163128961e-05
-4.946349508827552e-05,-9.362749551655725e-05,-2.531255995563697e-05,2.89631152554648e-05
-4.9073383706854656e-05,-8.888919546734542e-05,-2.199861228291411e-05,2.7807873266283423e-05
-4.772811371367425e-05,-6.244338146643713e-05,-1.852351488196291e-05,2.622346073621884e-05
-4.288017225917429e-05,-2.6181445718975738e-05,-1.7889906303025782e-05,2.6259740479872562e-05
-3.9930688217282295e-05,5.3185403885436244e-06,-1.9580662410589866e-05,2.7677806428982876e-05
-4.05338141717948e-05,2.895315265050158e-05,-2.3442435121978633e-05,2.716018570936285e-05
-4.235405140207149e-05,4.3523865315364674e-05,-2.2509664631797932e-05,2.410995693935547e-05
-4.4655789679381996e-05,5.571946894633584e-05,-1.5729245205875486e-05,2.557035804784391e-05
-4.407068627187982e-05,6.852981459815055e-05,-1.2172883543826174e-05,2.6533567506703548e-05
-4.171144246356562e-05,7.17829170753248e-05,-1.661886381043587e-05,2.2222007828531787e-05
-4.2214120185235515e-05,6.20917126070708e-05,-2.2544205421581864e-05,1.746586713124998e-05
-4.2297142499592155e-05,4.648829053621739e-05,-2.0937868612236343e-05,1.2098155821149703e-05
-4.203932257951237e-05,4.272534715710208e-05,-1.8799541066982783e-05,8.950526535045356e-06
-4.222738789394498e-05,4.9449907237431034e-05,-2.13611656363355e-05,1.0257280337100383e-05
-3.954194107791409e-05,5.164353206055239e-05,-2.4257280529127456e-05,1.4758388715563342e-05
-3.790004848269746e-05,4.6763598220422864e-05,-2.5155093680950813e-05,2.0130662960582413e-05
-3.898450449923985e-05,4.204053038847633e-05,-2.7600324756349437e-05,2.3030175725580193e-05
-4.1066683479584754e-05,3.9369158912450075e-05,-3.1324478186434135e-05,2.2055448425817303e-05
-4.3646563426591456e-05,3.5658598790178075e-05,-3.3215153962373734e-05,1.8387094314675778e-05
-4.557033389573917e-05,2.9793114663334563e-05,-3.215507967979647e-05,1.60876788868336e-05
-4.319518484408036e-05,2.5227891455870122e-05,-2.915485129051376e-05,1.8705173715716228e-05
-3.7148645787965506e-05,2.8765785827999935e-05,-2.6600162527756765e-05,2.4009619664866477e-05
-3.646902769105509e-05,4.0874732803786173e-05,-2.6326344595872797e-05,2.680747456906829e-05
-4.4455799070419744e-05,5.745941598434001e-05,-2.8939843105035834e-05,2.561717883509118e-05
-5.1966519095003605e-05,6.894209218444303e-05,-3.306187500129454e-05,2.3706948923063464e-05
-5.241887993179262e-05,6.682242383249104e-05,-3.628957347245887e-05,2.2202681066119112e-05
-5.134230377734639e-05,5.596678965957835e-05,-3.9236925658769906e-05,1.7399463104084134e-05
-5.4068408644525334e-05,5.085940574645065e-05,-4.344869012129493e-05,9.860956197371706e-06
-5.595283437287435e-05,5.761612192145549e-05,-4.4893400627188385e-05,7.651978194189724e-06
-5.49381147720851e-05,7.228073081932962e-05,-4.1919556679204106e-05,1.1145927601319272e-05
-5.60816733923275e-05,8.626938506495208e-05,-3.482251486275345e-05,1.4048000593902543e-05
-5.9788639191538095e-05,9.064088226296008e-05,-2.9377148166531697e-05,1.5699921277700923e-05
-6.206782563822344e-05,7.508965791203082e-05,-2.9920183806098066e-05,2.0441371816559695e-05
-6.103179475758225e-05,4.992696631234139e-05,-3.129007018287666e-05,2.838118416548241e-05
-6.0579521232284606e-05,2.6919487936538644e-05,-2.9531423933804035e-05,2.9351091143325903e-05
-5.8363275456940755e-05,-2.490902033969178e-06,-2.8052894776919857e-05,2.8483547794166952e-05
-5.6474978919140995e-05,-3.766102236113511e-05,-2.93205157504417e-05,3.139835826004855e-05
-5.517125828191638e-05,-6.185062375152484e-05,-3.1452909752260894e-05,2.9295188141986728e-05
-5.11429607286118e-05,-6.283773836912587e-05,-3.100537651334889e-05,2.5041706976480782e-05
-4.7932528104865924e-05,-4.174835339654237e-05,-3.066497083636932e-05,2.2922924472368322e-05
-4.480597999645397e-05,-1.0227739039692096e-05,-3.179583291057497e-05,2.08535620913608e-05
-4.695308962254785e-05,1.5941672245389782e-05,-3.0854902433929965e-05,1.894386332423892e-05
-5.251144102658145e-05,3.687656135298312e-05,-3.0009920010343194e-05,1.976240673684515e-05
-5.7031102187465876e-05,5.7436747738393024e-05,-3.0086262995610014e-05,2.2374812033376656e-05
-5.8992431149818e-05,6.858073174953461e-05,-2.856522041838616e-05,2.448675877531059e-05
-6.21935905655846e-05,6.159579061204568e-05,-2.5567891498212703e-05,2.6365192752564326e-05
-6.642740481765941e-05,4.64899349026382e-05,-2.3099539248505607e-05,2.798464811348822e-05
-6.683726678602397e-05,3.2546595321036875e-05,-2.2360312868840992e-05,2.7318574211676605e-05
-6.106731598265469e-05,2.306791429873556e-05,-2.1472251319210045e-05,2.6011439331341535e-05
-5.527798202820122e-05,2.2154557882458903e-05,-1.9767445337492973e-05,2.5391917006345466e-05
-5.573352245846763e-05,2.798202694975771e-05,-1.949199395312462e-05,2.2065831217332743e-05
-5.720104309148155e-05,3.012350498465821e-05,-2.175915869884193e-05,1.720281215966679e-05
-5.333603621693328e-05,2.673811832210049e-05,-2.418439180473797e-05,1.7315789591521025e-05
-4.810460450244136e-05,2.710801527427975e-05,-2.4081949959509075e-05,2.120179487974383e-05
-5.001875979360193e-05,3.071976243518293e-05,-2.2181420717970468e-05,2.2335829271469265e-05
-5.43170899618417e-05,3.2897372875595465e-05,-2.1211961211520247e-05,2.157131712010596e-05
-5.221505489316769e-05,3.329271567054093e-05,-2.2170675947563723e-05,2.38629672821844e-05
-4.724983227788471e-05,3.377563916728832e-05,-2.272732490382623e-05,2.7617135856417008e-05
-4.615691432263702e-05,3.307428050902672e-05,-2.1978028598823585e-05,2.6825384338735603e-05
-4.326676207710989e-05,3.419110726099461e-05,-1.7092166672227904e-05,2.281599518028088e-05
-4.160848766332492e-05,3.6002686101710424e-05,-1.424516176484758e-05,2.2768095732317306e-05
-3.5045719414483756e-05,3.2619496778352186e-05,-1.439902825950412e-05,2.5864954295684583e-05
-2.2617055947193876e-05,2.722167300817091e-05,-1.0048761396319605e-05,2.700306686165277e-05
-1.6149044313351624e-05,2.2760958017897792e-05,-8.286520824185573e-06,2.7481370125315152e-05
-1.431246619176818e-05,2.8441472750273533e-05,-1.0457261851115618e-05,2.8222944820299745e-05
-1.1643723155430052e-05,3.843964805128053e-05,-1.2224528290971648e-05,2.7492160370456986e-05
-7.197834747785237e-06,4.0050374082056805e-05,-1.198988775286125e-05,2.86067916022148e-05
-6.050775937183062e-06,3.2551375625189394e-05,-1.207766581501346e-05,3.29969625454396e-05
-1.1821097359643318e-05,1.4487361113424413e-05,-1.5041830920381472e-05,3.378069959580898e-05
-2.0359195332275704e-05,-3.2167164931706793e-07,-1.6423962733824737e-05,3.0492881705868058e-05
-2.5528690457576886e-05,3.602566039262456e-06,-1.6808893633424304e-05,2.8284770451136865e-05
-3.059014125028625e-05,2.4780918465694413e-05,-1.775390046532266e-05,3.1149338610703126e-05
-3.5869652492692694e-05,4.487993282964453e-05,-1.8916878616437316e-05,3.477961217868142e-05
-4.01306024286896e-05,5.431594036053866e-05,-2.2088757759775035e-05,3.245717380195856e-05
-4.591443939716555e-05,5.43294008821249e-05,-2.81753164017573e-05,2.525404852349311e-05
-5.1636518037412316e-05,5.15187275595963e-05,-3.238563658669591e-05,2.117021540470887e-05
-5.4238906159298494e-05,4.962772800354287e-05,-3.325472425785847e-05,2.1354298951337114e-05
-5.390380465541966e-05,4.5304084778763354e-05,-3.306582584627904e-05,2.2455695216194727e-05
-5.439350206870586e-05,3.493542317301035e-05,-2.9386710593826137e-05,2.4164111891877837e-05
-5.848334694746882e-05,2.1406587620731443e-05,-2.2698599423165433e-05,2.4031876819208264e-05
-6.353270873660222e-05,1.2892932318209205e-05,-1.9568935385905206e-05,2.268506977998186e-05
-6.512981053674594e-05,1.2710504961432889e-05,-2.043164749920834e-05,2.4131382815539837e-05
-6.443208985729143e-05,2.2194943085196428e-05,-2.219915040768683e-05,2.569960088294465e-05
-6.240141374291852e-05,4.750749212689698e-05,-2.3996510208235122e-05,2.4080000002868474e-05
-6.210728315636516e-05,7.473122968804091e-05,-2.5747202016646042e-05,2.526586649764795e-05
-6.584100628970191e-05,7.652805652469397e-05,-2.749535815382842e-05,3.0088371204328723e-05
-6.982955528656021e-05,6.033187673892826e-05,-2.9564746000687592e-05,3.3239946787944064e-05
-6.546252552652732e-05,4.3296862713759765e-05,-3.097068838542327e-05,3.5164670407539234e-05
-5.948550460743718e-05,2.4616054361104034e-05,-2.8650549211306497e-05,3.771330739255063e-05
-6.65832994855009e-05,-3.5095586099487264e-06,-2.9285065465955995e-05,3.53997056663502e-05
-7.840384205337614e-05,-2.4979461159091443e-05,-3.362003553775139e-05,3.1800496799405664e-05
-8.479816460749134e-05,-2.1486246623680927e-05,-3.516611468512565e-05,2.794599458866287e-05
-8.505419100401923e-05,-2.6804568733496126e-06,-3.296247450634837e-05,2.2601685486733913e-05
-8.283190982183442e-05,1.3654687791131437e-05,-2.8106846002629027e-05,2.109870547428727e-05
-7.65406948630698e-05,2.196965397160966e-05,-2.218321787950117e-05,2.4021477656788193e-05
-7.311419903999195e-05,2.4995048079290427e-05,-2.004758789553307e-05,2.524916453694459e-05
-7.607609586557373e-05,3.059818845940754e-05,-2.2787407942814752e-05,2.3601616703672335e-05
-7.953205204103142e-05,4.0706247091293335e-05,-2.4996023057610728e-05,2.497993227734696e-05
-7.859995093895122e-05,4.825001451536082e-05,-2.5063993234653026e-05,2.4880027922336012e-05
-7.353020191658288e-05,4.962837556377053e-05,-2.4181983462767676e-05,2.169490107917227e-05
-7.040362834231928e-05,4.866333256359212e-05,-2.3857553969719447e-05,2.036523619608488e-05
-6.608122203033417e-05,4.894911398878321e-05,-2.254205901408568e-05,2.239358400402125e-05
-5.732513818657026e-05,4.8841018724488094e-05,-1.987353061849717e-05,2.3749111278448254e-05
-4.907301627099514e-05,4.8624013288645074e-05,-1.9943003280786797e-05,2.218224835814908e-05
-4.652345887734555e-05,4.8664580390322953e-05,-2.4292879970744252e-05,2.0827339540119283e-05
-4.632288982975297e-05,4.6459303121082485e-05,-2.8635660783038475e-05,1.996836181206163e-05
-4.799630551133305e-05,4.5406832214212045e-05,-3.128812386421487e-05,1.898598566185683e-05
-5.0061258662026376e-05,4.8998768761521205e-05,-3.1328443583333865e-05,1.914799759106245e-05
-4.704700768343173e-05,5.076085653854534e-05,-2.6613222871674225e-05,2.2136400730232708e-05
-3.7562418583547696e-05,4.7703935706522316e-05,-2.1573039703071117e-05,2.526704702177085e-05
-3.011740409419872e-05,4.277978223399259e-05,-2.2610463929595426e-05,2.2359861759468913e-05
-3.260903031332418e-05,4.174711648374796e-05,-2.7743772079702467e-05,1.933740350068547e-05
-4.187445665593259e-05,4.4643657020060346e-05,-3.45174121321179e-05,2.3017197236185893e-05
-4.96022985316813e-05,4.326094131101854e-05,-3.845172977889888e-05,2.4481352738803253e-05
-4.6221844968385994e-05,2.6622328732628375e-05,-3.83982369385194e-05,2.252821286674589e-05
-3.74802402802743e-05,7.267470209626481e-06,-4.0355531382374465e-05,2.4909137209760956e-05
-3.848057531286031e-05,1.779293654635694e-07,-4.0960003389045596e-05,2.9637147235916927e-05
-4.749549043481238e-05,2.419800239295e-06,-3.992720667156391e-05,3.076288339798339e-05
-5.524796506506391e-05,5.763253284385428e-06,-4.2358900827821344e-05,2.6629286367096938e-05
-5.54350990569219e-05,3.623696102295071e-06,-4.196721420157701e-05,2.2247199012781493e-05
-4.986211934010498e-05,6.813965569563152e-08,-3.7818703276570886e-05,1.8131700926460326e-05
-4.3061867472715676e-05,3.1540184863843024e-06,-3.508015288389288e-05,1.5420320778503083e-05
-4.069802525918931e-05,1.4102382010605652e-05,-3.1766270694788545e-05,1.8106189600075595e-05
-4.487132537178695e-05,2.697386298677884e-05,-3.0638744647148997e-05,2.3095284632290713e-05
-4.8058416723506525e-05,4.217926834826358e-05,-2.8081160053261556e-05,2.5589688448235393e-05
-4.478439223021269e-05,6.263844261411577e-05,-2.3149626940721646e-05,2.6088717277161777e-05
-4.172299668425694e-05,9.120163304032758e-05,-1.9659117242554203e-05,2.8250442483113147e-05
-4.632324998965487e-05,0.00011183182505192235,-2.1380610633059405e-05,2.898772800108418e-05
-5.096160020912066e-05,0.0001044162709149532,-2.5800140065257438e-05,2.615594166854862e-05
-4.780342351295985e-05,7.27589795133099e-05,-2.901002335420344e-05,2.3220680304802954e-05
-4.269647251931019e-05,3.975513027398847e-05,-2.90977750410093e-05,2.438434421492275e-05
-4.1136518120765686e-05,2.0286131984903477e-05,-2.5857600121526048e-05,2.8208274670760147e-05
-4.295752660254948e-05,1.2426817193045281e-05,-2.391281486779917e-05,3.033834400412161e-05
-4.764283585245721e-05,9.377117748954333e-06,-2.390020017628558e-05,2.701215817069169e-05
-5.085654993308708e-05,6.282555204961682e-06,-2.4732476958888583e-05,2.1409839973784983e-05
-4.9695747293299064e-05,4.59953116660472e-06,-2.565029717516154e-05,2.0275661881896667e-05
-5.1639282901305705e-05,2.178212980652461e-06,-2.7237640097155236e-05,2.2935077140573412e-05
-5.476850492414087e-05,-7.000188588790479e-07,-2.7624819267657585e-05,2.3410519133904018e-05
-5.1366012485232204e-05,1.086426891561132e-06,-2.6000861907959916e-05,2.02929149963893e-05
-4.604018613463268e-05,1.1242008440603968e-05,-2.384209983574692e-05,1.5333549526985735e-05
-4.041545253130607e-05,2.7483578378451057e-05,-2.2108923076302744e-05,1.2856930879934225e-05
-3.959933383157477e-05,4.3330011976649985e-05,-2.323272747162264e-05,1.3011364899284672e-05
-4.0996466850629076e-05,5.403246177593246e-05,-2.7725211111828685e-05,1.0697924153646454e-05
-4.522677045315504e-05,4.3023403122788295e-05,-3.0582858016714454e-05,1.568456536915619e-05
-5.332676664693281e-05,1.3718898117076606e-05,-3.3377116778865457e-05,2.356752156629227e-05
-5.602482633548789e-05,-6.38239771433291e-06,-3.5371806006878614e-05,2.600775951577816e-05
-4.80628659715876e-05,-1.0047468094853684e-05,-3.689822187880054e-05,2.5305307644885033e-05
-3.97066687582992e-05,-1.3827135489918874e-06,-3.47337409039028e-05,2.2573904061573558e-05
-3.784204091061838e-05,1.3506858522305265e-05,-2.975639836222399e-05,2.0654777472373098e-05
-4.172471017227508e-05,2.9847322366549633e-05,-2.7461610443424433e-05,2.2747293769498356e-05
-4.473936132853851e-05,4.03241538151633e-05,-2.5728706532390788e-05,2.979146120196674e-05
-3.8449546991614625e-05,4.375130811240524e-05,-2.1573727281065658e-05,3.507532528601587e-05
-3.106541043962352e-05,4.258530680090189e-05,-1.778626574377995e-05,3.523959094309248e-05
-2.9939614250906743e-05,4.1106985008809716e-05,-1.5789839380886406e-05,3.0792707548243925e-05
-3.388366167200729e-05,4.1059978684643283e-05,-1.412484471075004e-05,2.5028379241121e-05
-3.991025369032286e-05,4.689783963840455e-05,-1.4830030522716697e-05,1.9858707673847675e-05
-4.845608054893091e-05,5.8989466197090223e-05,-1.680285276961513e-05,1.765743400028441e-05
-5.3428033425007015e-05,6.918706640135497e-05,-1.827305277402047e-05,1.7380118151777424e-05
-5.1401522796368226e-05,6.805705925216898e-05,-1.9978402633569203e-05,1.908510057546664e-05
-4.718301352113485e-05,5.72096359974239e-05,-2.308663897565566e-05,2.0624247554223984e-05
-4.644849832402542e-05,4.934607204631902e-05,-2.499746005923953e-05,1.830091241572518e-05
-4.7164496209006757e-05,4.940947474096902e-05,-2.4449429474771023e-05,1.4931777513993438e-05
-4.798982263309881e-05,5.383455936680548e-05,-2.2123180315247737e-05,1.447496561013395e-05
-4.8327987315133214e-05,5.9918722399743274e-05,-2.122312616847921e-05,1.5379147953353822e-05
-4.785148848895915e-05,6.339212995953858e-05,-2.1821510017616674e-05,1.2521845746960025e-05
-4.63265496364329e-05,5.484469511429779e-05,-2.2256304873735644e-05,1.0262513569614384e-05
-4.351591269369237e-05,4.276620893506333e-05,-1.9572895325836726e-05,1.2707734640571289e-05
-4.42778218712192e-05,3.954912244807929e-05,-1.589275780133903e-05,1.859293297457043e-05
-4.385030479170382e-05,3.945786374970339e-05,-1.6782832972239703e-05,2.097308424708899e-05
-3.9976785046746954e-05,3.6948455090168864e-05,-1.7625436157686636e-05,2.0889612642349675e-05
-3.981744885095395e-05,3.781375926337205e-05,-1.754437107592821e-05,2.3121772755985148e-05
-4.247979450155981e-05,4.2093222873518243e-05,-2.35878505918663e-05,2.5281802663812414e-05
-5.00505993841216e-05,4.8313075240002945e-05,-3.022482997039333e-05,2.7144771593157202e-05
-5.6142973335227e-05,4.952872041030787e-05,-3.0012042770977132e-05,2.7553040126804262e-05
-5.518433317774907e-05,4.7763529437361285e-05,-2.691381268959958e-05,2.7283962481305934e-05
-5.076266825199127e-05,4.575643833959475e-05,-2.7423819119576365e-05,2.639936974446755e-05
-4.7485427785431966e-05,4.0118324250215665e-05,-3.1175131880445406e-05,2.5961124265450053e-05
-5.241818871581927e-05,3.16932491841726e-05,-3.237475175410509e-05,2.7714351745089516e-05
-6.069473965908401e-05,2.5760873541003093e-05,-3.1342242436949164e-05,2.885863978008274e-05
-6.486999336630106e-05,2.3209184291772544e-05,-3.169893898302689e-05,2.952259819721803e-05
-6.1598933825735e-05,2.2754971723770723e-05,-3.0769453587708995e-05,3.303036282886751e-05
-5.5898024584166706e-05,2.3758771931170486e-05,-2.6352316126576625e-05,3.684224429889582e-05
-5.265444633550942e-05,2.239024979644455e-05,-2.4753499019425362e-05,3.344525248394348e-05
-5.077070090919733e-05,1.490764225309249e-05,-2.8439217203413136e-05,2.498658977856394e-05
-4.813749183085747e-05,1.5282026879503974e-06,-3.078584995819256e-05,2.134627902705688e-05
-4.9572183343116194e-05,-1.226781569130253e-05,-2.8988848498556763e-05,2.5932289645425044e-05
-5.491122283274308e-05,-1.8304937839275226e-05,-2.5712293791002594e-05,3.2976218790281564e-05
-5.406906711868942e-05,-9.776086699275766e-06,-2.266183219035156e-05,3.655084583442658e-05
-4.8087389586726204e-05,2.4025264337979024e-06,-2.1664567611878738e-05,3.411505531403236e-05
-4.327444185037166e-05,5.61218394068419e-06,-2.2680893380311318e-05,3.0312996386783198e-05
-4.0003153117140755e-05,2.2400834041036433e-06,-2.403397229500115e-05,2.8654814741457812e-05
-3.3569194783922285e-05,-8.744802471483126e-06,-2.3789772967575118e-05,2.833594953699503e-05
-2.2239264581003226e-05,-3.137697058264166e-05,-2.2359108697855845e-05,2.751712963799946e-05
-1.3026190572418272e-05,-5.79089937673416e-05,-2.354121534153819e-05,2.4418883185717277e-05
-1.2493293070292566e-05,-7.170665048761293e-05,-2.6381172574474476e-05,2.309570845682174e-05
-1.579537092766259e-05,-4.037575126858428e-05,-2.4980257876450196e-05,2.322067302884534e-05
-1.9939230696763843e-05,1.965561204997357e-05,-2.4178418243536726e-05,2.550778299337253e-05
-2.481973024259787e-05,6.671871960861608e-05,-2.758726077445317e-05,2.7044728994951583e-05
-2.9712427931372076e-05,8.69311552378349e-05,-2.8071321139577776e-05,2.442610275465995e-05
-3.7531597627094015e-05,8.347932453034446e-05,-2.65616545220837e-05,2.049425347649958e-05
-4.3616106268018484e-05,7.191915938165039e-05,-2.639956073835492e-05,1.7513353668618947e-05
-5.14736348122824e-05,6.32175215287134e-05,-2.782108094834257e-05,1.5306575733120553e-05
-5.908529055886902e-05,6.056887286831625e-05,-2.9028358767391182e-05,1.164260902442038e-05
-6.356382073136047e-05,5.915985457249917e-05,-2.76255450444296e-05,1.1386978258087765e-05
-6.63087994325906e-05,6.756447692168877e-05,-2.3942253392306156e-05,1.2315827916609123e-05
-6.931897951290011e-05,8.597473060945049e-05,-1.8853688743547536e-05,1.3735879292653408e-05
-7.191007171059027e-05,9.776584192877635e-05,-1.546014755149372e-05,1.6948146367212757e-05
-7.47849335311912e-05,8.95192933967337e-05,-1.671089012234006e-05,1.9773013264057226e-05
-8.059081301325932e-05,6.970522372284904e-05,-2.076527198369149e-05,2.10639391298173e-05
-8.432623144472018e-05,4.8944268201012164e-05,-2.235768442915287e-05,1.9107452317257412e-05
-8.450877794530243e-05,3.296476279501803e-05,-2.1236932298052125e-05,1.54383869812591e-05
-8.167196210706607e-05,2.9163651561248116e-05,-2.2348156562657095e-05,1.3283049156598281e-05
-7.474250014638528e-05,3.518461744533852e-05,-2.6017070922534913e-05,1.5573956261505373e-05
-6.209980347193778e-05,4.1498704376863316e-05,-2.793766907416284e-05,2.1747864593635313e-05
-5.366109326132573e-05,4.026134411105886e-05,-2.6875301045947708e-05,2.8701493647531606e-05
-5.112373037263751e-05,2.9772712878184393e-05,-2.7667198082781397e-05,3.187154288752936e-05
-5.065516961622052e-05,1.6739420971134678e-05,-3.113226193818264e-05,2.9410120987449773e-05
-5.3475079766940325e-05,1.5476349290111102e-05,-3.3076950785471126e-05,2.4564596969867125e-05
-5.755481470259838e-05,2.4565721105318516e-05,-3.286893115728162e-05,2.3729468011879362e-05
-5.910264371777885e-05,2.808752287819516e-05,-3.1221217795973644e-05,2.626643436087761e-05
-5.375498585635796e-05,2.4552289687562734e-05,-2.996696093759965e-05,2.7355852580512874e-05
-4.2633047996787354e-05,2.0444305846467614e-05,-2.808224417094607e-05,2.7345377020537853e-05
-3.723121699295007e-05,1.2356807019386906e-05,-2.4631188352941535e-05,2.850331293302588e-05
-3.925733471987769e-05,1.2243267519806977e-05,-2.2589127183891833e-05,2.6937674192595296e-05
-4.285114846425131e-05,1.9817796783172525e-05,-2.2016558432369493e-05,2.3753065761411563e-05
-4.235801679897122e-05,2.432484325254336e-05,-2.589234100014437e-05,2.4263557861559093e-05
-3.9936581742949784e-05,3.0458186301984824e-05,-3.087371078436263e-05,3.09247370751109e-05
-3.542911872500554e-05,3.968663440900855e-05,-2.9844219170627184e-05,3.634017411968671e-05
-2.8770427888957784e-05,4.589670425048098e-05,-2.8105125238653272e-05,3.481163730612025e-05
-3.148921314277686e-05,4.7339086449937895e-05,-2.8492784622358158e-05,3.084572745137848e-05
-4.317959974287078e-05,4.599400926963426e-05,-2.8345180908218026e-05,2.813486753439065e-05
-5.061233969172463e-05,4.2910447518806905e-05,-2.8670709070865996e-05,2.6667436031857505e-05
-4.960740261594765e-05,4.19599782617297e-05,-3.3080956200137734e-05,2.5087298126891255e-05
-4.476949470699765e-05,4.4888845877721906e-05,-3.749794268514961e-05,2.551534453232307e-05
-4.401857586344704e-05,4.525546682998538e-05,-3.660753645817749e-05,2.7374628189136274e-05
-4.915901808999479e-05,3.518749508657493e-05,-3.0515415346599184e-05,2.6483932742848992e-05
-5.361187140806578e-05,1.3934379239799455e-05,-2.6567293389234692e-05,2.279347063449677e-05
-5.5663367675151676e-05,-9.265759217669256e-06,-2.77832386927912e-05,2.206814315286465e-05
-5.642052929033525e-05,-1.9037117453990504e-05,-3.019115138158668e-05,2.2041978809284046e-05
-5.970501297269948e-05,-1.4194891264196485e-05,-3.085011849179864e-05,1.799817619030364e-05
-6.730054155923426e-05,-6.242305971682072e-06,-3.1925312214298174e-05,1.2892362974525895e-05
-7.336009730352089e-05,-1.660122734392644e-06,-3.441884837229736e-05,1.359121688437881e-05
-6.925230263732374e-05,6.863409680590848e-07,-3.388098411960527e-05,1.949385659827385e-05
-6.277454667724669e-05,4.4374983190209605e-06,-3.112421472906135e-05,2.5493520297459327e-05
-6.0481652326416224e-05,1.7656875570537522e-05,-2.5751149223651737e-05,2.724335718085058e-05
-5.4123724112287164e-05,3.527609078446403e-05,-1.954223625943996e-05,2.4356293579330668e-05
-4.377609002403915e-05,4.22368902945891e-05,-1.652468927204609e-05,2.0700179447885603e-05
-4.103019819012843e-05,3.67325555998832e-05,-1.701511791907251e-05,1.966370655281935e-05
-4.00763274228666e-05,2.6043759135063738e-05,-1.663000693952199e-05,2.1074905816931278e-05
-3.535021824063733e-05,3.328508682898246e-05,-1.7408072380931117e-05,2.314893208676949e-05
-3.550732071744278e-05,6.779722025385126e-05,-1.8592652850202285e-05,2.4505417968612164e-05
-4.410930705489591e-05,9.893171954900026e-05,-2.0100478650419973e-05,2.315971505595371e-05
-6.222326192073524e-05,0.00011282705963822082,-2.3838418201194145e-05,2.052583840850275e-05
-7.339977310039103e-05,0.000129239764646627,-2.2670421458315104e-05,1.9409337255638093e-05
-7.05583079252392e-05,0.00014240223390515894,-1.934919782797806e-05,2.426889113849029e-05
-6.743461563019082e-05,0.00012544354831334203,-1.97366280190181e-05,3.0281960789579898e-05
-6.75631599733606e-05,8.441126556135714e-05,-2.199366281274706e-05,3.0257449907367118e-05
-6.482757453341037e-05,4.705560058937408e-05,-2.419240445306059e-05,2.5085722882067785e-05
-5.924407741986215e-05,3.151776400045492e-05,-2.7396990844863467e-05,1.9651593902381137e-05
-6.081494575482793e-05,2.8210741220391355e-05,-3.0117154892650433e-05,1.8839087715605274e-05
-6.466994091169909e-05,1.6599882656009868e-05,-3.164865483995527e-05,2.2044507204554975e-05
-6.393413059413433e-05,-1.1358962183294352e-05,-3.438859130255878e-05,2.541403955547139e-05
-5.9323792811483145e-05,-4.743670069728978e-05,-3.653036037576385e-05,2.7603289709077217e-05
-5.624686673399992e-05,-7.47038284316659e-05,-3.5881370422430336e-05,3.007447776326444e-05
-5.624540790449828e-05,-7.488531991839409e-05,-3.4578533814055845e-05,3.069940794375725e-05
-5.909175524720922e-05,-4.999780867365189e-05,-3.4576722100609913e-05,2.825691808538977e-05
-6.341637345030904e-05,-2.621778185130097e-05,-3.534220377332531e-05,2.5044302674359642e-05
-6.580358603969216e-05,-1.9877385057043284e-05,-3.762414416996762e-05,2.1838284737896174e-05
-6.431910878745839e-05,-2.1912139345658943e-05,-3.904878758476116e-05,1.8279584764968604e-05
-5.834958574268967e-05,-2.17888464248972e-05,-3.732889672392048e-05,1.655663800192997e-05
-5.2594034059438854e-05,-1.9020691979676485e-05,-3.2703545002732426e-05,1.65878955158405e-05
-5.120138303027488e-05,-9.318820957560092e-06,-2.96929465548601e-05,2.060272527160123e-05
-5.208595757721923e-05,2.4399932954111136e-06,-3.252406895626336e-05,2.745915116975084e-05
-5.0881011702585965e-05,1.0010517144110054e-05,-3.324374119983986e-05,2.7630103431874886e-05
-4.928358248434961e-05,1.822832564357668e-05,-2.886301081161946e-05,2.369756839470938e-05
-4.2747891711769626e-05,2.7948699425905943e-05,-2.423100704618264e-05,2.131850487785414e-05
-3.6321478546597064e-05,3.124396607745439e-05,-2.322514592378866e-05,2.4047611077548936e-05
-3.526248474372551e-05,3.376263703103177e-05,-2.8256383302505128e-05,2.9364082365646027e-05
-3.7842823076061904e-05,4.0631330193718895e-05,-3.11305484501645e-05,3.199167622369714e-05
-4.523689131019637e-05,4.644173532142304e-05,-2.8379234208841808e-05,3.4211232559755445e-05
-4.92365361424163e-05,5.418438740889542e-05,-2.5947429094230756e-05,3.413186641409993e-05
-4.7510635340586305e-05,6.214553286554292e-05,-2.7296233383822255e-05,3.092565748374909e-05
-4.984139741281979e-05,6.841838330728933e-05,-2.943931394838728e-05,2.7424019208410755e-05
-5.1937058742623776e-05,7.236244709929451e-05,-2.84001089312369e-05,2.530835263314657e-05
-5.000080636818893e-05,7.152321632020175e-05,-2.4609051251900382e-05,2.155636866518762e-05
-4.8485500883543864e-05,7.162796828197315e-05,-2.1456055037560873e-05,1.8634496882441454e-05
-4.8847236030269414e-05,7.521658699261025e-05,-2.0714369384222664e-05,2.0580731870722957e-05
-5.1123912271577865e-05,7.60765906306915e-05,-1.9775496184593067e-05,2.4260549253085628e-05
-5.645621786243282e-05,6.748030864400789e-05,-1.9182156393071637e-05,2.572264929767698e-05
-6.211025902302936e-05,5.1653343689395115e-05,-1.854330548667349e-05,2.5351000658702105e-05
-6.192183354869485e-05,2.9679540602955967e-05,-1.7333601135760546e-05,2.5463996280450374e-05
-5.765102832810953e-05,9.20223737921333e-06,-1.64417451742338e-05,2.6735264327726327e-05
-5.651716128340922e-05,2.549493729020469e-06,-1.7303284039371647e-05,2.9123046260792762e-05
-5.834354305989109e-05,1.1378896488167811e-05,-1.9012370103155263e-05,3.126116280327551e-05
-5.872170004295185e-05,2.592876262497157e-05,-1.906631950987503e-05,3.279318116256036e-05
-5.975606109132059e-05,3.978973472840153e-05,-1.9020060790353455e-05,3.0424984288401902e-05
-6.009384378558025e-05,4.6435587137239054e-05,-2.1102661776239984e-05,2.4536904675187543e-05
-5.3648116590920836e-05,4.132928734179586e-05,-2.223496812803205e-05,2.2839723897050135e-05
-4.348076618043706e-05,3.1860578019404784e-05,-2.3643349777557887e-05,2.5600400476832874e-05
-3.6177498259348795e-05,2.6314466595067643e-05,-2.451300861139316e-05,2.500536538718734e-05
-3.145646769553423e-05,2.739556111919228e-05,-2.2687605451210402e-05,2.143277379218489e-05
-3.101876063738018e-05,2.794780994008761e-05,-2.013856646954082e-05,2.0907678845105693e-05
-3.225063483114354e-05,2.6359080948168412e-05,-2.1248442862997763e-05,2.0202945961500518e-05
-3.303931953269057e-05,2.6309444365324453e-05,-2.1471065338118933e-05,1.7262653273064643e-05
-3.734734491445124e-05,2.4029102860367857e-05,-1.6846493963385e-05,1.549575972603634e-05
-4.072632145835087e-05,2.063576175714843e-05,-1.4376718354469631e-05,1.442212305846624e-05
-4.0120688936440274e-05,2.4056942493189126e-05,-1.5511335732298903e-05,1.817884731281083e-05
-3.4098702599294484e-05,3.152727003907785e-05,-1.9171522581018507e-05,2.732204484345857e-05
-2.5362523956573568e-05,3.743805064004846e-05,-1.99720907403389e-05,3.269205626565963e-05
-2.6116562366951257e-05,3.814517185674049e-05,-2.0403411326697096e-05,3.0702016374561936e-05
-3.1778730772202834e-05,3.6905948945786804e-05,-2.148586827388499e-05,2.605791451060213e-05
-3.316215588711202e-05,3.5251807275926694e-05,-2.5080864361370914e-05,2.211028004239779e-05
-3.142077912343666e-05,3.635555549408309e-05,-3.022912824235391e-05,2.192816282331478e-05
-3.4285309084225446e-05,4.4344917114358395e-05,-3.118773747701198e-05,2.3173179215518758e-05
-4.219415131956339e-05,5.5841548601165414e-05,-2.7319716537022032e-05,2.6708088626037352e-05
-4.7789635573280975e-05,6.311447214102373e-05,-2.4618320821900852e-05,3.289158485131338e-05
-4.9114252760773525e-05,6.378941179718822e-05,-2.4333694454981014e-05,3.540149555192329e-05
-4.737109338748269e-05,5.549698107643053e-05,-2.3340058760368265e-05,3.301331526017748e-05
-4.4029602577211335e-05,3.268172076786868e-05,-2.3561809939565137e-05,3.046380152227357e-05
-4.069675560458563e-05,3.5051129998464603e-06,-2.3869612050475553e-05,2.7633948775473982e-05
-3.8183705328265205e-05,-1.5164418073254637e-05,-2.3327640519710258e-05,2.4246162865892984e-05
-3.431761797401123e-05,-1.644503208808601e-05,-2.329123526578769e-05,2.5027622541529126e-05
-3.064907286898233e-05,-6.692449915135512e-06,-2.664692874532193e-05,2.5401282982784323e-05
-2.9086198992445134e-05,3.4031650102406275e-06,-2.976778159791138e-05,2.236545151390601e-05
-2.879813291656319e-05,1.1285667824267875e-05,-2.8566795663209632e-05,2.100823439832311e-05
-2.9833012376911938e-05,2.738040166150313e-05,-2.588191273389384e-05,2.408278851362411e-05
-3.1977058824850246e-05,5.021892866352573e-05,-2.9865323085687123e-05,2.547641452110838e-05
-4.1485782276140526e-05,6.789392500650138e-05,-3.614693196141161e-05,2.1291956727509387e-05
-5.452440746012144e-05,7.616125367349014e-05,-4.1968032746808603e-05,1.603316377440933e-05
-5.924974902882241e-05,7.800927414791659e-05,-4.4917906052432954e-05,9.819797014642972e-06
-5.678753223037347e-05,8.634831465315074e-05,-4.1108785808319226e-05,7.868723514548037e-06
-6.010097058606334e-05,0.00011347320105414838,-3.768540409510024e-05,1.2045625226164702e-05
-7.371972606051713e-05,0.0001379130408167839,-3.7667072319891304e-05,1.2453279850888066e-05
-8.163537859218195e-05,0.00014122457650955766,-3.661166920210235e-05,9.937109098245855e-06
-8.299804903799668e-05,0.00013349251821637154,-3.376594395376742e-05,7.424242539855186e-06
-8.063718269113451e-05,0.0001242752477992326,-3.036281850654632e-05,8.651602911413647e-06
-7.638958777533844e-05,0.00011509382602525875,-2.3685766791459173e-05,1.16561104732682e-05
-7.378185546258464e-05,0.0001013829605653882,-1.8547032595961355e-05,1.321738545811968e-05
-7.161626854212955e-05,8.802076627034694e-05,-1.76791272679111e-05,1.7060296158888377e-05
-6.84659753460437e-05,8.576730760978535e-05,-1.961091038538143e-05,2.290178235853091e-05
-6.571217818418518e-05,9.162292553810403e-05,-2.1536343410843983e-05,2.481105548213236e-05
-6.164810474729165e-05,8.994009840535e-05,-2.2609057850786485e-05,2.2588032152270898e-05
-5.352684820536524e-05,6.317226507235318e-05,-2.2601079763262533e-05,1.899285416584462e-05
-4.939112113788724e-05,1.2421993233147077e-05,-2.124096135958098e-05,1.6981221051537432e-05
-5.199071529204957e-05,-3.513685805955902e-05,-2.2440453903982416e-05,1.7700162061373703e-05
-5.261894693830982e-05,-5.1089238695567474e-05,-2.7793183107860386e-05,1.950801379280165e-05
-4.858136162511073e-05,-3.774932702071965e-05,-3.289141022833064e-05,1.9249158867751248e-05
-4.563012771541253e-05,-2.7803058401332237e-05,-3.220245707780123e-05,1.6005418729037046e-05
-4.438281030161306e-05,-4.422527854330838e-05,-2.690802102733869e-05,1.5127625374589115e-05
-4.315455589676276e-05,-6.984025094425306e-05,-2.2137091946206056e-05,1.7146185200545006e-05
-3.716369974426925e-05,-8.15292660263367e-05,-1.9485270968289115e-05,1.8230950445285998e-05
-3.152526551275514e-05,-7.691489008720964e-05,-1.9119333956041373e-05,1.8137829101760872e-05
-3.178812039550394e-05,-5.4065993026597425e-05,-2.3085871362127364e-05,1.912155858008191e-05
-3.073007974307984e-05,-2.2312127839541063e-05,-2.5747895051608793e-05,2.125871105818078e-05
-2.855413367797155e-05,5.598754796665162e-06,-2.714640686463099e-05,2.5205366910086013e-05
-3.0074726964812726e-05,2.918892823799979e-05,-3.034852306882385e-05,2.889406096073799e-05
-3.8373065763153136e-05,5.2716346544912085e-05,-3.330362233100459e-05,3.4066528314724565e-05
-4.950647780788131e-05,7.134957559173927e-05,-3.517812365316786e-05,3.4733020584098995e-05
-5.760562635259703e-05,7.877858297433704e-05,-3.232336894143373e-05,2.6662361051421613e-05
-5.993666491121985e-05,6.798323738621548e-05,-2.7857511668116786e-05,1.9984707250841893e-05
-5.113499719300307e-05,4.690164132625796e-05,-2.539315028116107e-05,1.8590775653137825e-05
-4.34692956332583e-05,2.506919736333657e-05,-2.635940290929284e-05,1.8454016753821634e-05
-4.0148472180590034e-05,-4.895495294476859e-06,-2.8577580451383255e-05,1.847080056904815e-05
-3.86866377084516e-05,-2.218204281234648e-05,-2.6415666070533916e-05,2.1010651835240424e-05
-3.791636845562607e-05,-1.644927942834329e-05,-2.1837142412550747e-05,2.4931314328568988e-05
-3.3834749046945944e-05,-2.267504669362097e-06,-1.92871466424549e-05,2.674108873179648e-05
-3.00774845527485e-05,6.959177426324459e-06,-2.0664585463237017e-05,2.6692901883507147e-05
-3.0010151021997444e-05,7.650962288607843e-06,-2.199294431193266e-05,2.4938937713159248e-05
-3.354082946316339e-05,1.0682774700399023e-05,-2.135279828507919e-05,2.2883958081365563e-05
-3.912897955160588e-05,2.679847602848895e-05,-2.0186691472190432e-05,2.151606349798385e-05
-4.80278285976965e-05,5.072129351901822e-05,-2.062488601950463e-05,2.1980195015203208e-05
-6.076447607483715e-05,6.924563786014915e-05,-2.2316024114843458e-05,2.441322067170404e-05
-7.66607845434919e-05,7.234261283883825e-05,-2.500598566257395e-05,2.5863873815978877e-05
-8.967641770141199e-05,5.6681350542930886e-05,-3.007505802088417e-05,2.252477679576259e-05
-9.40784957492724e-05,2.8266938898013905e-05,-3.293084955657832e-05,1.659027475398034e-05
-8.893093036022037e-05,-2.6683990199671825e-06,-3.0219804102671333e-05,1.5239565072988626e-05
-7.96839885879308e-05,-2.2589465515920892e-05,-2.7196554583497345e-05,1.8200067643192597e-05
-6.950873648747802e-05,-2.789808058878407e-05,-2.725415470195003e-05,2.082476203213446e-05
-6.400956772267818e-05,-2.4577149815740995e-05,-2.712482091737911e-05,2.2663947675027885e-05
-6.463324825745076e-05,-1.3965884136268869e-05,-2.5386498236912303e-05,2.4572074835305102e-05
-6.415937968995422e-05,4.151485882175621e-06,-2.4661763745825738e-05,2.5519344490021467e-05
-5.737387982662767e-05,2.088597830152139e-05,-2.4802004190860316e-05,2.633038275234867e-05
-5.3694664529757574e-05,3.197936894139275e-05,-2.20717593037989e-05,2.8551947252708487e-05
-5.864764534635469e-05,3.822854341706261e-05,-1.873185101430863e-05,3.0004113796167076e-05
-5.697087544831447e-05,4.390218236949295e-05,-2.01742604986066e-05,2.7834012144012377e-05
-5.008210791856982e-05,4.878250911133364e-05,-2.7377644073567353e-05,2.5491624910500832e-05
-4.308925781515427e-05,5.4076190281193703e-05,-3.0488246920867823e-05,2.4572995243943296e-05
-3.747873051906936e-05,6.07304900768213e-05,-3.1840398150961846e-05,2.378833232796751e-05
-3.9195172576000914e-05,6.7432141804602e-05,-3.615745299612172e-05,2.4105111151584424e-05
-3.937288056476973e-05,6.786555604776368e-05,-3.599548290367238e-05,2.3094145944924094e-05
-3.6021960113430396e-05,5.553491791943088e-05,-3.2296615245286375e-05,1.9970641005784273e-05
-3.08466624119319e-05,3.986635056207888e-05,-2.9390977942966856e-05,2.0204872271278873e-05
-2.719182157306932e-05,2.8998048946959898e-05,-2.6204512323602103e-05,2.4481189029756933e-05
-2.698518437682651e-05,3.1981388019630685e-05,-2.3853201128076762e-05,3.0444141884800047e-05
-2.4731200028327294e-05,5.235210483078845e-05,-2.3228674763231538e-05,3.3404525311198086e-05
-1.7714317436912097e-05,7.125392585294321e-05,-2.2599429939873517e-05,3.2158328394871205e-05
-1.1474533494038042e-05,6.71871894155629e-05,-2.10585531021934e-05,2.901232619478833e-05
-1.0326689334760886e-05,4.062446532770991e-05,-1.8557055227574892e-05,2.892117299779784e-05
-8.876746505848132e-06,1.0026331437984481e-05,-1.8468210328137502e-05,3.198043486918323e-05
-8.805295692582149e-06,-1.3740848316956544e-06,-1.8696578990784474e-05,3.3160649763885885e-05
-1.4456988537858706e-05,8.783308658166789e-06,-1.7586355170351453e-05,3.1053659768076614e-05
-2.5449375243624672e-05,1.947731652762741e-05,-1.7923279301612638e-05,2.880035390262492e-05
-4.004933362011798e-05,1.1787153198383749e-05,-2.0466313799261115e-05,2.768842205114197e-05
-5.2240815421100706e-05,-9.514411431155168e-06,-2.378302815486677e-05,2.4194032448576763e-05
-5.46613555343356e-05,-2.9938952138763852e-05,-2.5612984245526604e-05,2.0169467461528257e-05
-5.442501060315408e-05,-4.0625738620292395e-05,-2.471720836183522e-05,2.132796544174198e-05
-5.8460809668758884e-05,-3.215455944882706e-05,-2.5655610443209298e-05,2.7131194656249136e-05
-6.238838977878913e-05,-7.967927558638621e-06,-2.9825218007317744e-05,2.7749631044571288e-05
-6.528062658617273e-05,2.0160228814347647e-05,-3.0260691346484236e-05,2.3597893232363276e-05
-6.810320337535813e-05,4.4447191612562165e-05,-2.6126379452762194e-05,2.5280145564465784e-05
-6.934075645403937e-05,5.133059312356636e-05,-2.388077882642392e-05,3.15051875077188e-05
-7.40315081202425e-05,4.5725475501967594e-05,-2.43560025410261e-05,3.7194178730715066e-05
-7.936273323139176e-05,4.516581248026341e-05,-2.406886596872937e-05,3.9937407564138994e-05
-8.074035577010363e-05,4.545437695924193e-05,-2.6757013984024525e-05,3.776862649829127e-05
-8.093518408713862e-05,4.520101356320083e-05,-2.9812910725013353e-05,3.394730811123736e-05
-8.087218157015741e-05,4.729401189251803e-05,-2.8715727239614353e-05,2.937734461738728e-05
-8.138012344716117e-05,5.079163747723214e-05,-2.7716525437426753e-05,2.4931670850492083e-05
-7.946127880131826e-05,5.560407225857489e-05,-2.5784453100641258e-05,2.247339034511242e-05
-7.47984740883112e-05,6.744820711901411e-05,-2.4353757908102125e-05,2.3236192646436393e-05
-6.855355604784563e-05,8.68920105858706e-05,-2.4190077965613455e-05,2.385530933679547e-05
-6.29368078080006e-05,0.0001011507265502587,-2.4533384930691682e-05,2.362992563575972e-05
-6.368538015522063e-05,0.0001049343918566592,-2.5351897420478053e-05,2.5729514163685963e-05
-6.74534312565811e-05,0.00010053130245069042,-2.683172897377517e-05,2.837875763361808e-05
-6.670328002655879e-05,9.009576024254784e-05,-2.798950663418509e-05,2.751200554484967e-05
-6.14122036495246e-05,7.48615202610381e-05,-3.0157434594002552e-05,2.4214517907239497e-05
-5.617974602500908e-05,5.846424028277397e-05,-3.369320256751962e-05,2.072284223686438e-05
-5.315669841365889e-05,4.678276309277862e-05,-3.5157576348865405e-05,1.870756022981368e-05
-4.982107930118218e-05,4.298455678508617e-05,-3.40522856276948e-05,1.7929609384736978e-05
-4.545937918010168e-05,4.318500941735692e-05,-3.197230398654938e-05,1.570728636579588e-05
-4.216720481053926e-05,4.04777929361444e-05,-3.0428427635342814e-05,1.2501822311605792e-05
-4.0938237361842766e-05,3.466944690444507e-05,-2.926064007624518e-05,1.0886029485845938e-05
-4.204269498586655e-05,3.338386886753142e-05,-2.8601782105397433e-05,1.0499935342522804e-05
-4.4737451389664784e-05,3.511431714287028e-05,-2.7738507924368605e-05,1.0322076377633493e-05
-4.5926357415737584e-05,3.5169035982107744e-05,-2.602267159090843e-05,1.082296876120381e-05
-4.5101936848368496e-05,4.0755618101684377e-05,-2.4466742615913972e-05,1.2933836842421442e-05
-3.9774611650500447e-05,4.666374661610462e-05,-2.261234294564929e-05,1.53650289576035e-05
-3.604698576964438e-05,4.2919902625726536e-05,-1.833987880672794e-05,1.7694741472951137e-05
-4.188343518762849e-05,3.5163142456440255e-05,-1.4781782738282345e-05,2.2512256691697985e-05
-4.825135329156183e-05,2.7996557037113234e-05,-1.967824573512189e-05,3.0012906790943816e-05
-4.9878926802193746e-05,2.092821705446113e-05,-2.532727739890106e-05,3.96401337638963e-05
-4.7487079427810386e-05,1.633525789657142e-05,-2.09482604986988e-05,4.2641477193683386e-05
-4.242019713274203e-05,1.0853111234609969e-05,-1.8030994397122413e-05,3.827766340691596e-05
-3.994947473984212e-05,-4.563208676700015e-06,-1.7154226952698082e-05,3.077717701671645e-05
-4.1200004488928244e-05,-2.4072771338978782e-05,-1.6905009033507667e-05,2.5263716452172957e-05
-4.272619480616413e-05,-3.269834633101709e-05,-1.6357294953195378e-05,2.2294827431323938e-05
-4.130410889047198e-05,-2.366697481193114e-05,-1.544804581499193e-05,2.0749264876940288e-05
-3.94389389839489e-05,-2.18398372453521e-06,-1.6668807802489027e-05,2.2498312318930402e-05
-3.8603808206971735e-05,2.7793326808023266e-05,-2.036237856373191e-05,2.3640035578864627e-05
-3.8741069147363305e-05,6.063284308766015e-05,-2.4976696295198053e-05,2.4386768927797675e-05
-3.9325252146227285e-05,8.454299677396193e-05,-2.9380738851614296e-05,2.6096684450749308e-05
-3.9979484427021816e-05,9.592810238245875e-05,-2.9884713512728922e-05,2.7703987143468112e-05
-4.11184664699249e-05,9.960738680092618e-05,-2.49246513703838e-05,2.7563128242036328e-05
-4.381820326671004e-05,0.00010054228187073022,-2.234922067145817e-05,2.7730269721359946e-05
-5.171066732145846e-05,9.353479254059494e-05,-2.359859354328364e-05,2.8477743398980238e-05
-6.148102693259716e-05,7.124318653950468e-05,-2.525045783841051e-05,2.8580689104273915e-05
-6.731366738677025e-05,3.8343932828865945e-05,-2.3729360691504553e-05,2.7635880542220548e-05
-6.676632619928569e-05,9.126178156293463e-06,-2.1135472707101144e-05,2.460397627146449e-05
-6.361957639455795e-05,-1.3315589058038313e-05,-1.8535796698415652e-05,2.0451021555345505e-05
-6.168184336274862e-05,-3.0267214242485352e-05,-1.9043674910790287e-05,1.6223661077674478e-05
-6.247348210308701e-05,-3.2966498110909015e-05,-2.2324271412799135e-05,9.335798495158087e-06
-6.511045648949221e-05,-1.4367707990459166e-05,-2.6705438358476385e-05,2.9210716547822813e-06
-6.342411506921053e-05,1.3927310646977276e-05,-2.985570790769998e-05,4.714437636721414e-06
-5.3787392971571535e-05,3.4391585359117016e-05,-3.1065617804415524e-05,1.2832122592953965e-05
-4.0860177250579e-05,6.0944657889194787e-05,-2.948069595731795e-05,1.8308666767552495e-05
-3.8596765080001205e-05,0.00010930457938229665,-2.8971700885449536e-05,1.830549990700092e-05
-4.869714757660404e-05,0.00015081246965564787,-3.24449320032727e-05,1.7427324564778246e-05
-5.8728739531943575e-05,0.00015565939247608185,-3.687083881231956e-05,1.9362036255188286e-05
-6.764869613107294e-05,0.0001168500748462975,-4.1188344766851515e-05,2.4863946237019263e-05
-7.442144124070182e-05,3.828724584309384e-05,-4.1649000195320696e-05,2.855418460967485e-05
-7.160884706536308e-05,-5.770250936620869e-05,-3.82806065317709e-05,2.781505827442743e-05
-6.288733129622415e-05,-0.00013784199836663902,-3.400907007744536e-05,2.729850348259788e-05
-5.815775875817053e-05,-0.00017876143101602793,-3.0249178962549195e-05,2.675733958312776e-05
-5.927671372774057e-05,-0.00018825969891622663,-2.8774682505172677e-05,2.6888348656939343e-05
-5.955214874120429e-05,-0.00018704752437770367,-2.7767482606577687e-05,2.6875070034293458e-05
-5.320068521541543e-05,-0.00019068446999881417,-2.623817817948293e-05,2.3000968212727457e-05
-4.394339339341968e-05,-0.000201006667339243,-2.6370869818492793e-05,1.6153830074472353e-05
-3.529793320922181e-05,-0.00020316321752034128,-2.8159965950180776e-05,1.1094327419414185e-05
-2.4412562197539955e-05,-0.00017501933325547725,-2.9210652428446338e-05,1.3046051208220888e-05
-1.1640696357062552e-05,-0.00010685573943192139,-2.9472599635482766e-05,2.174184010073077e-05
-1.3267451777210226e-06,-1.3561385458160657e-05,-3.0645715014543384e-05,3.0212973797461018e-05
3.725587703229394e-06,7.648584869457409e-05,-3.0194027203833684e-05,3.203383312211372e-05
3.568284455468529e-06,0.00014906017167959362,-2.5821185772656463e-05,2.8963198928977363e-05
-2.3984634935914073e-06,0.0002135226532118395,-2.3049900846672244e-05,2.6351253836764954e-05
-1.687985786702484e-05,0.00026938263908959925,-2.7707395929610357e-05,2.56981384154642e-05
-3.9239752368303016e-05,0.0002944614097941667,-3.7610254366882145e-05,2.6245686967740767e-05
-5.956717359367758e-05,0.00027919095009565353,-4.671892020269297e-05,2.9501310564228334e-05
-7.024507794994861e-05,0.00023283320479094982,-5.083347059553489e-05,2.923900683526881e-05
-7.292548252735287e-05,0.00017091573681682348,-4.908134724246338e-05,2.422730358375702e-05
-7.282955630216748e-05,0.00011353119771229103,-4.39194445789326e-05,2.4615361326141283e-05
-7.030792039586231e-05,8.127192995743826e-05,-3.814292358583771e-05,2.8869148081867024e-05
-6.629611743846908e-05,7.901728531578556e-05,-3.276943607488647e-05,2.8244079658179544e-05
-6.627657421631739e-05,7.716078835073858e-05,-3.151990313199349e-05,2.3521928596892394e-05
-6.248610588954762e-05,6.84739716234617e-05,-2.7996102289762348e-05,2.2302014258457348e-05
-5.274903742247261e-05,6.463188037741929e-05,-2.1614949218928814e-05,3.065423516090959e-05
-4.964429899700917e-05,6.548477540491149e-05,-1.9580871594371274e-05,3.8033722375985235e-05
-5.1125112804584205e-05,6.988282984821126e-05,-1.8789312889566645e-05,3.354126965859905e-05
-5.3656636737287045e-05,7.469386036973447e-05,-2.0677454813267104e-05,2.6791341952048242e-05
-5.768043047282845e-05,6.823012517997995e-05,-2.4177496015909128e-05,2.7280808353680186e-05
-6.11078503425233e-05,4.744706893688999e-05,-2.4109251171466894e-05,2.927425884990953e-05
-5.9988069551764056e-05,2.846043207682669e-05,-2.304373811057303e-05,2.3329084797296673e-05
-5.315175440046005e-05,1.951849480974488e-05,-2.204484371759463e-05,1.8805774743668735e-05
-4.7847177484072745e-05,2.2094442101661116e-05,-2.0576657334459014e-05,2.1515994376386516e-05
-4.420479672262445e-05,2.8419164664228447e-05,-1.8215645468444563e-05,2.348032285226509e-05
-4.1690869693411514e-05,3.196739999111742e-05,-1.7768888938007876e-05,2.0461469830479473e-05
-3.941813702112995e-05,3.184836168657057e-05,-1.9661179976537824e-05,1.6376900020986795e-05
-3.933116386178881e-05,3.370352351339534e-05,-2.208541627624072e-05,1.5155204891925678e-05
-4.672059731092304e-05,3.6066317989025265e-05,-2.439154741296079e-05,1.493387662776513e-05
-5.866943683940917e-05,3.6313547752797604e-05,-2.5545950848027132e-05,1.4937304513296112e-05
-6.348908209474757e-05,3.846721665468067e-05,-2.5056460799532942e-05,1.59009505296126e-05
-5.7668974477564916e-05,4.128316868445836e-05,-2.4067463527899235e-05,1.7909846064867452e-05
-5.1168317440897226e-05,3.8779046008130535e-05,-2.235625834146049e-05,1.7723144992487505e-05
-5.2387560572242364e-05,3.1579711503582075e-05,-1.8777769582811743e-05,1.5246538168867119e-05
-5.734918522648513e-05,2.345982466067653e-05,-1.588943268870935e-05,1.4951843695598654e-05
-5.7799581554718316e-05,1.494110438216012e-05,-1.5210362107609399e-05,2.0467856302275322e-05
-5.6339369621127844e-05,1.1203886970179155e-05,-1.4944226677471306e-05,2.5406776330783032e-05
-5.979677735012956e-05,1.0122339517693035e-05,-1.443049495719606e-05,2.5109588023042306e-05
-6.834648957010359e-05,1.2004467862425372e-05,-1.3156562999938615e-05,2.350616705371067e-05
-7.171502511482686e-05,1.6820733435451984e-05,-1.304314355365932e-05,2.1934325559413992e-05
-6.012888843542896e-05,1.968411925190594e-05,-1.6906948076211847e-05,2.229678830190096e-05
-4.782996256835759e-05,1.6029427570174448e-05,-1.841638186306227e-05,2.7081163352704607e-05
-4.650995470001362e-05,1.0785067388496827e-05,-1.7649132132646628e-05,3.0987721402198076e-05
-4.753293615067378e-05,1.1436953172960784e-05,-1.7629687135922723e-05,3.168418334098533e-05
-4.6983481297502294e-05,1.2858632544521242e-05,-2.0819050405407324e-05,3.149989424855448e-05
-4.4628646719502285e-05,2.4311417291755788e-05,-2.2554071620106697e-05,2.8746708267135546e-05
-4.238462133798748e-05,5.273477654554881e-05,-2.007657712965738e-05,2.5938295948435552e-05
-3.3818811061792076e-05,7.792544056428596e-05,-1.8655995518201962e-05,2.7680844141286798e-05
-2.3792763386154547e-05,7.871848356444389e-05,-2.1699859644286335e-05,3.430576907703653e-05
-2.1594496502075344e-05,5.819336365675554e-05,-2.5218392693204805e-05,4.276831532479264e-05
-2.762949952739291e-05,3.1094514270080253e-05,-2.40891968132928e-05,4.865656956098974e-05
-3.376983659109101e-05,-3.2192647267947905e-06,-1.9976105249952525e-05,4.654747317545116e-05
-3.3217729651369154e-05,-4.4732747483067214e-05,-1.6687721654307097e-05,3.8157861126819625e-05
-3.1613999453838915e-05,-7.69727339502424e-05,-1.6539395801373757e-05,2.973429945996031e-05
-3.5109791497234255e-05,-7.949722930788994e-05,-1.4994720004324336e-05,2.565907379903365e-05
-4.3233867472736165e-05,-5.6542427046224475e-05,-1.2819047697121277e-05,2.5995228497777134e-05
-5.0225604354636744e-05,-2.8418224246706814e-05,-1.4010991435498e-05,2.7538806534721516e-05
-5.488574242917821e-05,-4.342535248724744e-06,-1.9017692466150038e-05,2.5386621928191744e-05
-5.70350130146835e-05,1.7898140868055634e-05,-2.2959680791245773e-05,1.9410619643167593e-05
-5.531114584300667e-05,3.19573882734403e-05,-2.5648350856499746e-05,1.3642497833643574e-05
-4.8742396757006645e-05,3.051514067919925e-05,-2.8304824809310958e-05,1.0767246749310289e-05
-4.059775164932944e-05,2.5121476937783882e-05,-3.05885259876959e-05,1.255595179827651e-05
-3.300331445643678e-05,3.116915831924416e-05,-2.911593946919311e-05,1.791498470993247e-05
-3.3803364203777164e-05,4.686391548602842e-05,-2.643624429765623e-05,2.6696885470300913e-05
-4.5285396481631324e-05,6.037272760295309e-05,-2.835849045368377e-05,3.6632474802900106e-05
-5.5443284509237856e-05,6.383306754287332e-05,-2.898678940255195e-05,3.77711548935622e-05
-5.659434464178048e-05,5.687220618710853e-05,-2.8460613975767046e-05,2.809374564094469e-05
-5.421763489721343e-05,4.7337784053524956e-05,-2.6871668524108827e-05,1.924464049807284e-05
-5.058702299720608e-05,3.8892165321158245e-05,-2.78846564469859e-05,1.4548157196259126e-05
-4.436538438312709e-05,3.053333057323471e-05,-3.059943628613837e-05,1.229533700097818e-05
-4.0348400943912566e-05,2.3610295102116652e-05,-2.8837399440817535e-05,1.4606700460717548e-05
-3.850585198961198e-05,2.5954990633181296e-05,-2.7753183530876413e-05,1.7002377717290074e-05
-3.915498746209778e-05,3.840842691715807e-05,-2.9601358619402163e-05,1.5575080396956764e-05
-4.336802885518409e-05,3.596745227696374e-05,-3.279354132246226e-05,1.552017238282133e-05
-4.619716855813749e-05,1.5206310308713e-05,-3.400220884941518e-05,1.5002404325059615e-05
-4.6455323172267526e-05,2.1972446120344102e-06,-3.20344370265957e-05,1.3487390788213816e-05
-4.494789754971862e-05,6.352023774525151e-06,-2.8858032237621956e-05,1.4877229659759905e-05
-4.3953816202702e-05,2.3596716346219182e-05,-2.8975553505006246e-05,2.0317675080150366e-05
-4.5166121708462015e-05,4.544878174783662e-05,-3.31495757563971e-05,2.6704010451794602e-05
-4.765270205098204e-05,6.448230851674452e-05,-3.773085700231604e-05,2.8837077479693107e-05
-4.807475852430798e-05,6.890320946695283e-05,-3.897419082932174e-05,2.7979613150819205e-05
-4.6503999328706414e-05,5.617523129330948e-05,-3.7492405681405216e-05,2.688757194846403e-05
-4.676749449572526e-05,3.8831010897411034e-05,-3.419601489440538e-05,2.7064674213761464e-05
-5.214117845753208e-05,4.594341226038523e-05,-3.09229944832623e-05,2.7682222935254686e-05
-6.214732275111601e-05,8.647598588140681e-05,-3.0001245249877684e-05,2.5573206585249864e-05
-7.310548244277015e-05,0.00011583029117900878,-2.8698939786409028e-05,2.0427252820809372e-05
-7.904678932391107e-05,9.081159078050405e-05,-2.685221807041671e-05,1.7946096704690717e-05
-7.466496754204854e-05,3.5923851100960746e-05,-2.7670124836731702e-05,1.8581951735541224e-05
-6.754785863449797e-05,-3.0735550353711005e-06,-3.0219236577977426e-05,1.8982587789651006e-05
-6.633072916883975e-05,-2.1412493879324757e-05,-3.0297811463242397e-05,1.9126628103549592e-05
-6.862606824142858e-05,-3.0534571124007925e-05,-2.9021783120697364e-05,2.2120979338069446e-05
-6.984717765590176e-05,-2.7746253181248903e-05,-2.8577653210959397e-05,2.505439806554932e-05
-6.861436122562736e-05,-1.1447552424215246e-05,-2.7329264412401244e-05,2.360120379307773e-05
-6.961847975617275e-05,2.3330794647336006e-06,-2.4580114768468775e-05,2.247244083264377e-05
-7.205549627542496e-05,1.3374926311371382e-05,-2.300459709658753e-05,2.2223874111659825e-05
-6.972691335249692e-05,3.247373751946725e-05,-2.5722070859046653e-05,2.209618833148852e-05
-6.723984552081674e-05,4.694596282206476e-05,-3.024538091267459e-05,2.380386649747379e-05
-6.944713823031634e-05,4.184743738733232e-05,-3.154195292154327e-05,2.5096996978390962e-05
-7.586045830976218e-05,2.772391053440515e-05,-3.055970591958612e-05,2.5137662305496633e-05
-7.644761353731155e-05,1.9735045498237014e-05,-2.6801659259945154e-05,2.380388650635723e-05
-6.8241024564486e-05,2.6798525141202845e-05,-2.3977381715667434e-05,2.053757089015562e-05
-5.815033000544645e-05,4.433341382537037e-05,-2.5633687982917763e-05,1.7885913621285e-05
-5.047154627391137e-05,5.802297528134659e-05,-3.069026206503622e-05,1.7484286217950284e-05
-4.2693980503827333e-05,5.67839560972061e-05,-3.2592579373158514e-05,1.976483326870948e-05
-3.299104355392046e-05,4.0304301364813e-05,-2.9987068046466447e-05,2.049387876468245e-05
-2.3641590814804658e-05,2.1019734049332328e-05,-2.6107474695891142e-05,1.988438452826813e-05
-1.995162710954901e-05,1.7153468434116803e-05,-2.464372846588958e-05,2.1341873434721492e-05
-2.1063866370241158e-05,3.201302752131596e-05,-2.4284847313538194e-05,2.40681638388196e-05
-2.0998801119276322e-05,5.0337181164650247e-05,-2.2488737158710137e-05,2.7181766199646518e-05
-1.9061782950302586e-05,5.431109093478881e-05,-2.149383544747252e-05,2.8474496502894908e-05
-1.9581460946938023e-05,4.6875713451299816e-05,-2.147687155229505e-05,2.7764373953687027e-05
-2.3468932340620086e-05,4.098547651665285e-05,-2.1706260667997412e-05,2.548539123381488e-05
-2.6907095161732286e-05,3.411110083106905e-05,-2.2496631572721526e-05,2.4378021407756023e-05
-3.2208175980485976e-05,1.3746833246841561e-05,-2.312572360096965e-05,2.5452653062529862e-05
-4.064495806233026e-05,-1.7343911167699844e-05,-2.2414276827475987e-05,2.460724499542266e-05
-4.60815463156905e-05,-4.042956788907759e-05,-2.2436652216129005e-05,1.986376810236834e-05
-4.394144343677908e-05,-3.793827636400238e-05,-2.1438836483866908e-05,1.8689537682803348e-05
-4.259795605321415e-05,-1.2800079275621101e-05,-1.974825863726437e-05,2.2325035388348624e-05
-4.782207543030381e-05,7.724983333901037e-06,-1.9951507056248374e-05,2.1251260477583855e-05
-5.744674490415491e-05,1.5784657080075704e-05,-2.3764219804434106e-05,1.7845390175352804e-05
-6.0790975112468004e-05,1.982194953598082e-05,-2.6703248295234516e-05,1.8051729057333432e-05
-5.294454604154453e-05,3.276515053585172e-05,-2.5548239136696793e-05,2.3367081666947342e-05
-3.798089892370626e-05,5.269826579024084e-05,-2.652577131811995e-05,2.8438704248401336e-05
-2.8120379283791408e-05,6.581049092346802e-05,-3.1396055419463664e-05,2.767057958408259e-05
-3.783780994126573e-05,5.951948696747422e-05,-3.4530938137322664e-05,2.670084904821124e-05
-5.582485027844086e-05,3.4929598768940195e-05,-3.767513044294901e-05,2.649063571880106e-05
-6.523614865727723e-05,1.0207654668192845e-05,-3.9046575693646446e-05,2.489465259714052e-05
-6.349408067762852e-05,-2.9975740289955866e-06,-3.525240026647225e-05,2.1991229004925117e-05
-5.715936640626751e-05,-1.8860081354432623e-06,-2.946855420304928e-05,2.2150172299006954e-05
-5.6006279919529334e-05,5.450405296869576e-06,-2.6650746804079972e-05,2.560906796134077e-05
-5.953456638962962e-05,1.585056452313438e-05,-2.558899541327264e-05,2.6856498152483255e-05
-6.293546175584197e-05,2.860453059838619e-05,-2.7527888960321434e-05,2.5746414394234307e-05
-6.34544194326736e-05,4.836370499106124e-05,-3.065217606490478e-05,2.381470039836131e-05
-6.25839238637127e-05,7.182818080764264e-05,-3.120053224847652e-05,1.991557473957073e-05
-6.112489063525572e-05,8.526664896635339e-05,-2.792624400171917e-05,1.576802424096968e-05
-5.637537833536044e-05,8.632384560769424e-05,-2.2402882677852176e-05,1.704050191619899e-05
-5.13849918206688e-05,8.575349056627601e-05,-1.920595605042763e-05,2.4184255380532704e-05
-5.090558624942787e-05,9.279151709051803e-05,-1.8608627215144224e-05,2.981912621180527e-05
-5.371385486796498e-05,0.0001019101109704934,-1.941091068147216e-05,3.0142868126858957e-05
-5.6912580475909635e-05,9.81330158538185e-05,-1.9998567950096913e-05,2.7247298930888064e-05
-5.796138430014253e-05,7.633766654180363e-05,-2.0251307432772592e-05,1.977529791474808e-05
-5.3142004617257044e-05,5.4929416364757344e-05,-1.81350733328145e-05,1.116121893574018e-05
-4.8090540076373145e-05,4.414668001118116e-05,-1.676152169238776e-05,9.02338342712028e-06
-4.8460282414453104e-05,3.8158097595442086e-05,-1.8526861822465435e-05,1.3311757356859744e-05
-5.213101758272387e-05,3.787491368711926e-05,-2.4252663934021257e-05,1.9882905689883046e-05
-5.932564090471715e-05,4.8701142077334225e-05,-3.251686575822532e-05,2.631793904583901e-05
-6.490627129096538e-05,5.9849469835171476e-05,-3.8356618460966274e-05,2.760713869065512e-05
-6.375311204465106e-05,6.279369699768722e-05,-3.75695526599884e-05,2.2467893359134905e-05
-5.859369775862433e-05,5.6442066124873236e-05,-3.527977969497442e-05,2.15580002986826e-05
-5.459337990032509e-05,4.84175980091095e-05,-3.300759271951392e-05,2.569895332271699e-05
-5.6731576478341594e-05,4.313147655921057e-05,-3.015920810867101e-05,2.5053082936210558e-05
-5.9029531257692724e-05,3.1725230655865744e-05,-2.8555536118801683e-05,2.3194541427074e-05
-5.747855902882293e-05,2.25942403631052e-05,-3.0285538741736673e-05,2.1280773580656387e-05
-5.607774801319465e-05,2.298335857631173e-05,-3.343511707498692e-05,1.906450415845029e-05
-5.701758709619753e-05,3.0087372579146177e-05,-3.02452826872468e-05,1.482231164118275e-05
-5.684070129063912e-05,3.775533696170896e-05,-2.4433318685623817e-05,1.2374459402053617e-05
-5.422344838734716e-05,3.756840669666417e-05,-2.1999272576067597e-05,1.7286058209720068e-05
-5.4586656915489584e-05,2.6329847969464026e-05,-2.3392332877847366e-05,2.3733389753033407e-05
-5.6136846978915855e-05,8.968694601207972e-06,-2.5651053874753416e-05,2.753742410277482e-05
-5.5376225645886734e-05,-5.923670869378839e-06,-2.8555830795085058e-05,2.9361530323512852e-05
-5.2260395023040473e-05,-1.0399564416729845e-05,-3.300467142253183e-05,3.089958772761747e-05
-4.991192326997407e-05,-1.1779521855714847e-06,-3.554954309947789e-05,3.047321479243692e-05
-4.7422232455573976e-05,1.5313999028876424e-05,-3.243581886636093e-05,2.9120452381903306e-05
-4.419694596435875e-05,2.966465035569854e-05,-2.4130089514073916e-05,3.061198367504403e-05
-4.481443829718046e-05,3.681763701024465e-05,-1.8319742594030686e-05,3.501079117995687e-05
-4.762367098010145e-05,4.1959887312259525e-05,-2.1269344870233908e-05,3.731239849003032e-05
-4.898663246422075e-05,4.9140249757329e-05,-2.926567140093539e-05,3.5071887396043167e-05
-5.3048148402012885e-05,5.740750930272043e-05,-3.678012944874354e-05,2.904395296354778e-05
-6.08506343269255e-05,6.353948265314102e-05,-4.197802263661288e-05,2.023521847149823e-05
-6.492077227449045e-05,6.533003761433065e-05,-4.111516318516806e-05,1.4577896763512399e-05
-6.505849160021171e-05,5.764566230936907e-05,-3.6166526115266606e-05,1.5724110198789276e-05
-6.792967906221747e-05,3.8080419471953064e-05,-3.380318594281562e-05,1.98442030523438e-05
-7.372524123638868e-05,1.3947833394922782e-05,-3.299826494185254e-05,2.477545967849437e-05
-7.314545655390248e-05,-1.1658314178930596e-05,-2.998220588779077e-05,2.4488073904649355e-05
-6.635371391894296e-05,-2.179586408601608e-05,-2.666711043275427e-05,2.2961938157095574e-05
-5.4410604207077995e-05,3.5072139326075558e-06,-2.6970314138452522e-05,2.4769808078417554e-05
-4.3031323002651334e-05,2.4994646082632244e-05,-2.7100722945760936e-05,2.6286141292075627e-05
-3.940211536246352e-05,1.830254950618837e-05,-2.081547245325055e-05,2.6124524083570577e-05
-4.237809480400756e-05,5.460251031763619e-06,-1.6061292626545765e-05,2.4135173589456826e-05
-4.8096193495439366e-05,-3.04267268802505e-06,-1.741030609991867e-05,2.3553589926450513e-05
-5.322559445630759e-05,-4.789001650351565e-06,-1.9460117982816882e-05,2.3270897145266645e-05
-5.4809115681564435e-05,-1.1442379218351562e-05,-1.916869223350659e-05,2.424742342554964e-05
-5.024201891501434e-05,-1.909469392558094e-05,-1.6964657334028743e-05,2.6040763259516098e-05
-4.62815587525256e-05,-2.3642905944143422e-05,-1.7331060007563792e-05,2.730275627982337e-05
-4.332229582360014e-05,-1.7783891962608323e-05,-1.7029828086378984e-05,2.9666092814295553e-05
-4.0701543184695765e-05,3.7418553802126553e-06,-1.169380539067788e-05,3.326860678498633e-05
-3.338650276418775e-05,3.923388430848718e-05,-3.1441245482710656e-06,3.549288885551505e-05
-2.4129401936079375e-05,8.516196976415813e-05,2.2850317691336386e-06,3.217841367586516e-05
-2.269209835503716e-05,0.000135684764245525,3.0988392154540634e-06,2.4085529730655253e-05
-3.4644544939510524e-05,0.0001730516378302127,-1.2325840259563847e-07,1.5052876733534504e-05
-5.176140621188097e-05,0.0001667942851781845,-5.149228854861576e-06,7.73670217313338e-06
-6.108934030635282e-05,0.00011505618022056296,-8.844681360642426e-06,1.9098984012089204e-06
-6.31717120995745e-05,5.0136401114286855e-05,-1.4620409274357371e-05,-2.522796194170951e-06
-5.917940870858729e-05,-2.5814165383053478e-06,-2.556797699071467e-05,-4.177720256848261e-06
-4.904233355773613e-05,-4.44040160800796e-05,-3.4115964808734134e-05,-1.7934662537300028e-06
-3.8349087844835594e-05,-7.15957285137847e-05,-3.170820127706975e-05,4.198803253530059e-06
-2.887574373744428e-05,-7.173149788286537e-05,-2.593981298559811e-05,1.3217771083873231e-05
-2.1445237507577986e-05,-4.041554711875506e-05,-2.525416130083613e-05,2.3566211893921718e-05
-2.37565727729816e-05,1.3554398492487962e-06,-2.6342810087953694e-05,3.640399518189952e-05
-2.649742236826569e-05,3.2080959499580786e-05,-2.4938064598245546e-05,5.946930104983039e-05
-2.5526884201099165e-05,4.742426608572714e-05,-2.1238640329102054e-05,8.102849824354053e-05
-2.487562596797943e-05,5.037141090724617e-05,-1.7327130990452133e-05,8.579318091506138e-05
-3.1705189030617476e-05,4.627840462489985e-05,-1.6372410755138844e-05,7.48110978747718e-05
-4.1649749618954957e-05,4.408099266584031e-05,-1.9829903976642527e-05,5.6877968745538965e-05
-4.7298042773036286e-05,4.237210669089109e-05,-2.4602752091595903e-05,4.299041393096559e-05
-4.775094930664636e-05,3.410003046155907e-05,-2.889412826334592e-05,3.415135870454833e-05
-4.7498924686806276e-05,2.1351717805373482e-05,-3.4349417546764016e-05,3.0505985705531202e-05
-4.813664418179542e-05,1.3764095456281211e-05,-3.790153277805075e-05,2.8398957510944456e-05
-4.5297678298084065e-05,1.2400094419717789e-05,-3.775171717279591e-05,2.5083641958190128e-05
-4.712231384473853e-05,1.5406640159199014e-05,-3.587105675251223e-05,1.6446410882053897e-05
-5.042850898462348e-05,2.3031274395179935e-05,-3.5840141208609566e-05,8.899546628526878e-06
-5.007647268939763e-05,3.283302066847682e-05,-3.5740933526540175e-05,1.0842317351489328e-05
-4.5770182623527944e-05,4.109058136236854e-05,-3.443795503699221e-05,1.7083322745747864e-05
-4.470820204005577e-05,5.1267190428916365e-05,-3.2247869967250153e-05,2.166837475670036e-05
-5.010985478293151e-05,6.61352023598738e-05,-2.982571277243551e-05,2.1736126655014232e-05
-5.777759724878706e-05,7.763371104374528e-05,-3.046255915251095e-05,2.124429192917887e-05
-6.0343212680891156e-05,8.355530007975176e-05,-3.223471867386252e-05,2.424802733003162e-05
-5.706442243536003e-05,8.68242495926097e-05,-3.077362634940073e-05,3.3024491131072864e-05
-4.97645560244564e-05,9.159329783869907e-05,-2.613297510833945e-05,4.065184839419089e-05
-4.300698128645308e-05,9.505387424724177e-05,-2.374988434894476e-05,4.124435145058669e-05
-4.1134466300718486e-05,9.28711669985205e-05,-2.388051689194981e-05,3.615501191234216e-05
-4.0605547837913036e-05,8.512915519531816e-05,-2.5361512598465197e-05,3.0705195968039334e-05
-3.975756771978922e-05,7.741917215753347e-05,-2.7402062187320553e-05,2.744395715126302e-05
-3.621241921791807e-05,7.069749699439853e-05,-2.876124381145928e-05,2.4904351448640227e-05
-3.326259320601821e-05,6.079963714000769e-05,-2.957609285658691e-05,2.413776564935688e-05
-3.331268817419186e-05,4.330166848376393e-05,-2.8735503292409703e-05,2.6528501621214673e-05
-3.702849062392488e-05,2.082242826872971e-05,-2.858944390027318e-05,2.758302798611112e-05
-4.4328065996523947e-05,-2.3445181795977987e-06,-3.0859057005727664e-05,2.4918184863054194e-05
-4.992134199710563e-05,-1.8570090105640702e-05,-3.2470015867147595e-05,2.10445996344788e-05
-5.354105815058574e-05,-2.1054713215562515e-05,-3.4647131542442366e-05,1.8882512449636124e-05
-5.1440303650451824e-05,-1.7289858078584075e-05,-3.763063796213828e-05,1.7632431990932673e-05
-4.398852615850046e-05,-1.8897262634709477e-05,-3.648221172625199e-05,1.6814443370094523e-05
-4.323434040998109e-05,-2.9284588890732266e-05,-3.0746061383979395e-05,1.5031490875117015e-05
-4.630954936146736e-05,-3.3170632377732545e-05,-2.628163929330185e-05,1.2713073374470696e-05
-4.6663113607792184e-05,-2.404885526630096e-05,-2.428705192869529e-05,1.107033767766552e-05
-4.233243453199975e-05,-1.202480143547291e-05,-2.3755519578116946e-05,7.530208222306101e-06
-3.917825597454794e-05,-4.008329142379807e-06,-2.369150570302736e-05,6.504656994366087e-06
-3.921778261428699e-05,5.9213267178392925e-08,-2.0793553630937822e-05,7.407579232676653e-06
-4.21599397668615e-05,4.122597601963207e-06,-1.6715986930648796e-05,9.226293514075223e-06
-4.4961172534385696e-05,9.55344057729235e-06,-1.3263178516353946e-05,1.1961069503740873e-05
-4.666104359785095e-05,1.4888508303556591e-05,-1.2042041817039717e-05,1.4431085219257511e-05
-4.8338006308767945e-05,1.2490869266912341e-05,-1.3902498722018208e-05,1.710516335151624e-05
-4.795600034412928e-05,-2.922726480392157e-06,-1.3780996596324258e-05,1.843633799580857e-05
-4.267575786798261e-05,-2.6532359697739594e-05,-1.1098509276052937e-05,1.7928983652382158e-05
-3.553114220267162e-05,-5.031883483752608e-05,-1.1212147910555359e-05,1.7130687410826795e-05
-3.311975160613656e-05,-6.250539445318282e-05,-1.3720864444621839e-05,1.8511072994442657e-05
-3.504173218971118e-05,-5.307790343067609e-05,-1.6056084859883413e-05,2.335985664103646e-05
-3.9989507058635354e-05,-3.323742203065194e-05,-1.9622168110799976e-05,2.677242264326196e-05
-4.944827014696784e-05,-2.3681001039221883e-05,-2.541817411838565e-05,1.9749588318518363e-05
-6.51106602163054e-05,-1.7607351765036583e-05,-3.104252755292691e-05,7.112831553968135e-06
-7.541286322521046e-05,1.0282173207087908e-05,-3.356761590112001e-05,4.170954071014421e-06
-7.316371193155646e-05,5.966810931568034e-05,-3.526340879034251e-05,1.3978418792248704e-05
-6.171446875669062e-05,0.00010092206503031775,-3.353101055836305e-05,2.764357668638695e-05
-5.149941353010945e-05,0.00011392038140911609,-2.7083049644716084e-05,3.633027517935261e-05
-4.655884185922332e-05,0.00010747383203124627,-2.316710197192151e-05,3.759527317015454e-05
-4.4580800022231415e-05,0.00010176697833230719,-2.410500565019902e-05,3.479588485788554e-05
-4.6127977839205414e-05,9.966261131921783e-05,-2.5985857064370066e-05,3.094261046499014e-05
-4.788890146301128e-05,9.607584070181474e-05,-2.7956471967627294e-05,2.523963848943822e-05
-4.882966459263116e-05,9.174376464216039e-05,-2.7316762498230673e-05,2.0379429770400748e-05
-5.267461165203713e-05,8.862746472004801e-05,-2.3713952032267116e-05,2.1453553927130997e-05
-6.213662709342316e-05,9.220628999173641e-05,-2.2403744878829457e-05,2.689167195057962e-05
-6.822720752097666e-05,0.00010533634485909715,-1.995894308493007e-05,2.8658689188887365e-05
-6.723839760525152e-05,0.00011235936835873872,-1.8345626813243143e-05,2.4790968382149003e-05
-6.496415153378621e-05,0.00010515759640838951,-1.7292781194555573e-05,2.0843150196014903e-05
-5.911612606723793e-05,0.00010175033821724355,-1.9142049495712854e-05,2.1402007405413315e-05
-5.2046940254513174e-05,0.0001073878156603314,-2.639017293404322e-05,2.72237703029532e-05
-4.7258341510314494e-05,0.00011199273285456002,-3.7228353903628886e-05,3.431550430832431e-05
-4.942175291944295e-05,0.00010352671233704314,-4.382118640933186e-05,3.7639751099050045e-05
-5.501282794284634e-05,8.269880345324054e-05,-4.1963990952353925e-05,3.5675813705893233e-05
-5.556933319894597e-05,5.510605842573568e-05,-3.878963616443798e-05,3.0113867978798226e-05
-5.275637886370532e-05,1.950310979736969e-05,-3.589617335819639e-05,2.3590022465214133e-05
-4.910334973828867e-05,-1.956196138053201e-05,-2.8690032195299864e-05,2.090312227664981e-05
-4.2509458580752835e-05,-4.842096313950606e-05,-1.7576305253896862e-05,2.352257251914125e-05
-3.6707715480588377e-05,-5.628142025670968e-05,-1.0132209354196675e-05,2.6064499252242967e-05
-3.5082874092040583e-05,-4.922859079670161e-05,-7.831218681531027e-06,2.6484502086532302e-05
-3.5947534342994913e-05,-3.9009137253742665e-05,-9.941145435732324e-06,2.5531928258715197e-05
-4.078486017533578e-05,-2.2283120415522717e-05,-1.2931324818055145e-05,2.3172808141680434e-05
-4.470015119295567e-05,9.161987691186368e-06,-1.5119598174351268e-05,2.6197571060038172e-05
-4.291004006518051e-05,3.882418604916893e-05,-1.868671279225964e-05,3.515889693517238e-05
-4.2340874642832205e-05,4.416378942551091e-05,-2.582379602245055e-05,3.728728188434616e-05
-4.487660771701485e-05,3.060557719436474e-05,-3.1628220312995836e-05,2.604576548037585e-05
-4.730067666969262e-05,1.393468483001925e-05,-3.5119133826810867e-05,1.071792848961195e-05
-5.110470374347642e-05,-1.2582579074660316e-05,-4.0352366340812296e-05,4.8385750233137514e-06
-4.75605993415229e-05,-4.1132239857688546e-05,-4.2325777030782774e-05,1.840923141571693e-05
-3.677827771753073e-05,-2.7327609132044017e-05,-3.779082908295095e-05,3.9374201151076704e-05
-3.151463533868082e-05,1.2232938388478942e-05,-3.3254829759243876e-05,4.5089167542755604e-05
-3.665249823825434e-05,3.3701489883242175e-05,-3.233022289350629e-05,4.130040542804636e-05
-5.3047548135509714e-05,4.488683043746278e-05,-3.568306419765577e-05,3.465445843175985e-05
-7.804646884324029e-05,4.21374206780456e-05,-4.47370475740172e-05,2.1678386474377476e-05
-0.00010330813529435545,2.3889364456408657e-05,-5.469431562232785e-05,8.721331141714472e-06
-0.00011702679330483079,1.1426242963352706e-05,-6.029466021573171e-05,2.8065976493962808e-06
-0.00011553345393622294,1.9373332179384306e-05,-6.272738391999155e-05,1.914229414978763e-06
-0.00010607400326989591,3.535513315000571e-05,-6.0728139942511916e-05,4.9725247919241156e-08
-9.644214151194319e-05,5.569103450397961e-05,-5.523695290321484e-05,7.886429216341639e-07
-8.858957880875096e-05,8.698811143403873e-05,-4.560251909424551e-05,7.717415428487584e-06
-7.758476567687467e-05,0.00011066706792917103,-3.573124558897689e-05,1.888081715151202e-05
-6.846358883194625e-05,9.731716272654012e-05,-3.0074112146394327e-05,2.5962237486965023e-05
-6.620035856030881e-05,5.370633880374953e-05,-2.7935628168052062e-05,2.2365094991982915e-05
-6.513152038678527e-05,1.4223009202396497e-05,-2.5996609110734425e-05,1.4320238733489532e-05
-5.9179626987315714e-05,-5.275159651318972e-07,-2.184387449233327e-05,1.3807536561216693e-05
-4.995422204956412e-05,7.80265145294834e-06,-1.7712716726236977e-05,2.2870923203299753e-05
-4.316318518249318e-05,1.4470752830675337e-05,-1.6285217498079874e-05,2.8204971386003308e-05
-4.284424358047545e-05,4.540363534033531e-06,-1.8283017197973095e-05,2.3226317352964543e-05
-4.734005415230058e-05,-7.42069460102357e-06,-2.2106667529442348e-05,1.839114702306688e-05
-5.269545363262296e-05,-7.705732059548609e-06,-2.5633073164499365e-05,2.0088429664610885e-05
-5.403509203460999e-05,-2.625201886985451e-06,-2.4569440938648768e-05,2.1484798708115704e-05
-4.924710083287209e-05,1.1165478099428583e-05,-2.2934076696401462e-05,2.272848541906569e-05
-4.5572262024506927e-05,3.801288767135702e-05,-2.456231231917627e-05,2.6118199457414448e-05
-4.380328755360097e-05,6.216011388460174e-05,-2.6011823138105683e-05,2.7222193239140324e-05
-3.976043808506802e-05,6.767493323422968e-05,-2.5087831090786494e-05,2.310653326276224e-05
-3.7428148061735556e-05,6.672661402262747e-05,-2.438835144857876e-05,2.226036122010555e-05
-3.967654993175529e-05,7.212777563836426e-05,-2.3437783966073766e-05,2.855379534594249e-05
-4.355089185992256e-05,8.686331420904025e-05,-2.3833375962567516e-05,2.9535578505601734e-05
-4.5145119656808674e-05,0.00010379644663771614,-2.2543934392160736e-05,2.611096169857774e-05
-4.5023280108580366e-05,0.00010810276580741629,-1.9801462258328684e-05,2.223880437668413e-05
-5.019183663534932e-05,9.516398858977482e-05,-2.0192488591419533e-05,1.9457302187220193e-05
-5.8846373576670885e-05,7.017173629719764e-05,-2.3476441128877923e-05,1.655354571994394e-05
-6.251814193092287e-05,4.848381286137737e-05,-2.4152623154805042e-05,1.3491477147908881e-05
-5.514094664249569e-05,3.5419037885731086e-05,-2.2715514205629006e-05,1.5490451914956793e-05
-4.6914319682400674e-05,2.342628431506455e-05,-2.122925616276916e-05,2.1587200535577722e-05
-4.4007600081386045e-05,1.4547385944752023e-05,-2.18308596231509e-05,2.7609248718363233e-05
-4.3706819269573316e-05,1.408631396770943e-05,-2.3995218725758605e-05,2.9770155379083008e-05
-4.7453857405344024e-05,2.2783315216656774e-05,-2.3113650968298316e-05,3.1293042411562055e-05
-5.1212911785114557e-05,3.395848034415394e-05,-2.1021229258622043e-05,3.137199382763356e-05
-4.7392750275321305e-05,3.9738475607009605e-05,-1.9732475266209804e-05,3.1078001484274864e-05
-3.5132321499986574e-05,3.727535658981651e-05,-1.9234526916989125e-05,3.143494177493267e-05
-2.202617542934604e-05,2.8040540200890973e-05,-1.7527119780424982e-05,3.095990541623905e-05
-1.2051069461449515e-05,9.798241080716252e-06,-1.705562863207888e-05,2.9311075195437297e-05
-6.447033683798509e-06,-1.6275031157420017e-05,-1.6933196093305014e-05,3.0442715797107667e-05
-5.309259449859383e-06,-3.688572542159818e-05,-1.4166383152769413e-05,3.382892464287579e-05
-9.369443432660773e-06,-4.026307578897104e-05,-1.2184252227598336e-05,3.3825792343122885e-05
-1.7213915270986035e-05,-2.4599557946203277e-05,-1.254449671250768e-05,3.135147926514037e-05
-2.874698293453548e-05,-3.4184793094027555e-06,-1.0310595826013014e-05,2.7981495804851875e-05
-3.964030111092143e-05,1.3988373211759608e-05,-1.1223770343349315e-05,2.3406075342791155e-05
-4.9202204536413774e-05,3.5837816540151834e-05,-2.072583811241202e-05,1.8370692487224005e-05
-5.626035635941662e-05,6.342637061607093e-05,-3.0020939448149875e-05,1.7254980775760487e-05
-5.215348573983647e-05,8.061135304160416e-05,-3.537755037541501e-05,2.13617295230506e-05
-3.862418088829145e-05,8.55134057928808e-05,-3.579684562282637e-05,2.1645651941071264e-05
-3.500498132780194e-05,9.203484660247341e-05,-3.1755116651766e-05,1.8510168956709094e-05
-4.151566099608317e-05,0.00010450446279719472,-2.8846234272350557e-05,2.0384906747494824e-05
-4.9575472075957805e-05,0.0001106528434320353,-2.8169131837785244e-05,2.3300059183384292e-05
-6.398990808520466e-05,0.00010512221342651173,-2.8786191251128912e-05,2.4445671442663297e-05
-7.206595182651654e-05,9.54760835156776e-05,-2.7408423193264753e-05,2.492655585228931e-05
-6.685223343083635e-05,8.245115168392658e-05,-2.7899577617063187e-05,2.437212060613092e-05
-5.174888428882696e-05,6.552520062541589e-05,-2.86800477624638e-05,2.4316121198353358e-05
-4.0717153751756996e-05,4.9726757424650714e-05,-2.7016503736376762e-05,2.5628660296206363e-05
-3.681916496134363e-05,3.442167871980928e-05,-2.4239063350250944e-05,2.4598813979537226e-05
-3.471290983725339e-05,1.9156312191626057e-05,-2.3115302610676736e-05,2.3121046979213133e-05
-3.398462649784051e-05,4.209967755741673e-06,-2.135395334335044e-05,2.1099152945680544e-05
-3.541131809470244e-05,-8.77574802871095e-06,-2.030400537478272e-05,1.81914001586847e-05
-3.7966849049553275e-05,-1.7092050256906077e-05,-2.205951386713423e-05,1.6461235645692796e-05
-3.572379137040116e-05,-1.5803872884134762e-05,-2.1673437004210427e-05,1.9470429833745584e-05
-2.8922282581334002e-05,-7.755208571325056e-06,-2.1086401829961687e-05,2.7061172659159638e-05
-2.2927690224605612e-05,-4.0310288795808447e-07,-2.124130514857825e-05,3.24085121974349e-05
-2.2728436306351796e-05,5.852090453117853e-06,-2.1285814000293612e-05,3.1321626011049375e-05
-2.8250409741303883e-05,1.733805584080983e-05,-1.9710001652128994e-05,2.7216556190978736e-05
-4.2768919229274616e-05,3.573538560885936e-05,-1.9066394088440575e-05,2.3976541342562996e-05
-5.9912366850767285e-05,4.819517562282272e-05,-1.773367330315523e-05,2.0818628399865702e-05
-6.79622171446681e-05,4.0448110667057335e-05,-1.703060115687549e-05,1.744573273754213e-05
-6.372120697051287e-05,1.7084872524719685e-05,-1.688886186457239e-05,1.7158025002572685e-05
-5.503461215994321e-05,-2.3446109480573796e-06,-1.6960111679509282e-05,1.9142049495712854e-05
-4.8112218792084605e-05,-9.530155693937559e-06,-1.6648220480419695e-05,1.8760569219011813e-05
-4.296203042031266e-05,-9.277942808694206e-06,-1.7013273463817313e-05,1.8995820937561803e-05
-3.73644070350565e-05,2.9759664812445408e-06,-1.8458822523825802e-05,2.518513792892918e-05
-3.3105447073467076e-05,3.5782737541012466e-05,-1.7607002519071102e-05,3.33458483510185e-05
-3.880848817061633e-05,5.8496032579569146e-05,-1.8710790754994377e-05,3.2387568353442475e-05
-5.0562008254928514e-05,5.4674870625603944e-05,-2.102591679431498e-05,2.4345805286429822e-05
-6.162041245261207e-05,4.22453522332944e-05,-2.1876077880733646e-05,1.761873318173457e-05
-7.418553286697716e-05,3.5232980735599995e-05,-2.496716297173407e-05,1.5019575585029088e-05
-7.65979420975782e-05,4.013040233985521e-05,-3.050549275940284e-05,1.429672192898579e-05
-6.470058724517003e-05,4.473736044019461e-05,-3.317887239973061e-05,1.364523996016942e-05
-4.955506301485002e-05,3.493250915198587e-05,-3.370699778315611e-05,1.2934650840179529e-05
-4.2131574446102604e-05,8.700424587004818e-06,-3.5837667383020744e-05,1.6441746993223205e-05
-4.354503471404314e-05,-2.5403331164852716e-05,-3.5212691727792844e-05,2.0720885004266165e-05
-5.205548950470984e-05,-5.254961797618307e-05,-3.165104135405272e-05,1.9606179193942808e-05
-5.9369063819758594e-05,-6.84934202581644e-05,-2.625945671752561e-05,1.4654530787083786e-05
-5.9432946727611125e-05,-8.019626693567261e-05,-2.214633786934428e-05,1.1103602446382865e-05
-5.861282261321321e-05,-8.416952914558351e-05,-2.179722287110053e-05,9.949666491593234e-06
-5.849132139701396e-05,-6.613502046093345e-05,-2.3534745196229778e-05,1.2878704183094669e-05
-6.117348675616086e-05,-2.5398872821824625e-05,-2.6218785933451727e-05,2.031213261943776e-05
-6.604646478081122e-05,1.7737442249199376e-05,-2.7534424589248374e-05,2.5737959731486626e-05
-7.350765372393653e-05,4.626529334927909e-05,-2.6878788048634306e-05,2.6826206521946006e-05
-8.048768359003589e-05,6.168588879518211e-05,-2.638170371938031e-05,2.6998428438673727e-05
-8.479953976348042e-05,7.32826956664212e-05,-2.770614628389012e-05,3.008515341207385e-05
-8.734557195566595e-05,8.371112198801711e-05,-2.6787536626216024e-05,3.117777669103816e-05
-8.782187069300562e-05,8.259336755145341e-05,-2.3666889319429174e-05,2.919568942161277e-05
-8.223670738516375e-05,6.561337795574218e-05,-2.2709009499521926e-05,2.7139336452819407e-05
-7.034587179077789e-05,4.666034146794118e-05,-2.7381911422708072e-05,2.6110021281056106e-05
-5.769285053247586e-05,4.0814749809214845e-05,-3.07417030853685e-05,2.5791896405280568e-05
-5.3297640988603234e-05,4.2903066059807315e-05,-3.0974675610195845e-05,2.7551061066333205e-05
-5.4075288062449545e-05,4.5530447096098214e-05,-3.0486355171888135e-05,2.8122121875640005e-05
-5.4590109357377514e-05,5.269044413580559e-05,-3.0275552489911206e-05,2.8799315259675495e-05
-5.5111995607148856e-05,6.198545452207327e-05,-3.685366391437128e-05,3.755950820050202e-05
-5.2594408771255985e-05,7.141296373447403e-05,-4.0714901842875406e-05,4.3752639612648636e-05
-4.693631126428954e-05,7.335572445299476e-05,-3.957299850299023e-05,4.073173113283701e-05
-4.355232886155136e-05,6.164965452626348e-05,-3.902265234501101e-05,3.385798481758684e-05
-4.765518679050729e-05,4.8328012780984864e-05,-3.7934139982098714e-05,2.6260309823555872e-05
-5.41358494956512e-05,4.242296199663542e-05,-3.805203232332133e-05,1.9904769942513667e-05
-5.5368956964230165e-05,3.909784572897479e-05,-3.7414989492390305e-05,1.7059388483176008e-05
-5.410701487562619e-05,3.740066313184798e-05,-3.426731564104557e-05,2.0569566913763992e-05
-5.304511068970896e-05,4.0791997889755294e-05,-3.294431007816456e-05,2.599792424007319e-05
-4.9313257477479056e-05,4.506032564677298e-05,-3.758615275728516e-05,2.9400094717857428e-05
-4.6186494728317484e-05,4.4424188672564924e-05,-3.973254206357524e-05,2.8780104912584648e-05
-4.539623114396818e-05,4.356119825388305e-05,-3.7688310840167105e-05,2.6610592612996697e-05
-4.6342218411155045e-05,4.691598951467313e-05,-3.561726043699309e-05,2.247964766866062e-05
-4.8555226385360584e-05,5.5567525123478845e-05,-3.441108492552303e-05,1.6545976905035786e-05
-5.310150299919769e-05,6.700352969346568e-05,-3.252255555707961e-05,1.194390824821312e-05
-5.599014912149869e-05,6.697618664475158e-05,-3.074247797485441e-05,1.0735835530795157e-05
-5.547655382542871e-05,5.2872244850732386e-05,-2.7075946491095237e-05,1.279066054848954e-05
-5.2571431297110394e-05,4.326007911004126e-05,-1.64644698088523e-05,1.729478572087828e-05
-4.755752888740972e-05,4.992970934836194e-05,-1.0004710020439234e-06,2.311755088157952e-05
-4.159719537710771e-05,5.695814616046846e-05,1.1903421182068996e-05,2.8239534003660083e-05
-3.425680552027188e-05,4.558995715342462e-05,1.4379874301084783e-05,3.198079139110632e-05
-2.902790038206149e-05,2.5222210751962848e-05,6.32791807220201e-06,3.2520027161808684e-05
-2.9626104151248e-05,1.2702212188742124e-05,-8.22021047497401e-06,3.069976082770154e-05
-3.333017957629636e-05,1.1283073945378419e-05,-2.545570896472782e-05,2.961287464131601e-05
-3.4778902772814035e-05,2.1532696337089874e-05,-3.7929283280391246e-05,2.8681235562544316e-05
-3.5041066439589486e-05,3.0489309210679494e-05,-4.3237469071755186e-05,2.6536596124060452e-05
-3.74212468159385e-05,3.605466554290615e-05,-4.5708799007115886e-05,2.4208771719713695e-05
-3.80383717129007e-05,3.904740879079327e-05,-4.035630263388157e-05,2.075367774523329e-05
-3.5428660339675844e-05,3.286032733740285e-05,-2.663167288119439e-05,1.8235612515127286e-05
-3.4963159123435616e-05,2.338396734558046e-05,-1.093931950890692e-05,1.863836223492399e-05
-3.9598588045919314e-05,1.4333902072394267e-05,-3.2262769309454598e-06,2.1846792151336558e-05
-4.9000296712620184e-05,1.5677427654736675e-05,-5.485107976710424e-06,2.5362156520714052e-05
-5.702488124370575e-05,1.6662292182445526e-05,-8.518049071426503e-06,2.6752257326734252e-05
-5.7467266742605716e-05,-2.1245195966912434e-06,-9.436303116672207e-06,2.2933274522074498e-05
-5.0553036999190226e-05,-2.8984357413719408e-05,-1.1025350431737024e-05,1.756912752171047e-05
-4.212660496705212e-05,-3.659048888948746e-05,-1.330648683506297e-05,1.5520379747613333e-05
-4.1454673919361085e-05,-2.8408432626747526e-05,-1.5222796719172038e-05,1.8400724002276547e-05
-4.510900180321187e-05,-2.8504113288363442e-05,-1.5760459064040333e-05,2.2568519852939062e-05
-4.405802610563114e-05,-3.7894635170232505e-05,-1.6425219655502588e-05,2.5782455850276165e-05
-3.953979830839671e-05,-4.271954458090477e-05,-1.8165630535804667e-05,2.751449210336432e-05
-3.6551766243064776e-05,-4.0019753214437515e-05,-2.0554756702040322e-05,2.7686219254974276e-05
-3.704171103890985e-05,-3.275518611189909e-05,-2.3541675545857288e-05,2.7705767934094183e-05
-4.2400330130476505e-05,-1.6168087313417345e-05,-2.6816553145181388e-05,2.87347829726059e-05
-4.8585407057544217e-05,1.1542839274625294e-05,-2.915970435424242e-05,3.083702176809311e-05
-4.858527972828597e-05,3.843702870653942e-05,-3.0330109439091757e-05,3.047368591069244e-05
-4.852154233958572e-05,4.4043161324225366e-05,-3.191445648553781e-05,2.674096504051704e-05
-5.4654228733852506e-05,3.165754969813861e-05,-3.362316419952549e-05,2.25569456233643e-05
-6.32955416222103e-05,2.993212365254294e-05,-3.5660825233208016e-05,2.340831451874692e-05
-7.146221469156444e-05,4.965711559634656e-05,-3.868795101880096e-05,2.9310889658518136e-05
-8.154376700986177e-05,7.481803913833573e-05,-4.3825191823998466e-05,3.254402327002026e-05
-9.117449371842667e-05,9.082109318114817e-05,-4.816040018340573e-05,2.7059122658101842e-05
-9.478836000198498e-05,9.848894114838913e-05,-4.787794387084432e-05,2.0172745280433446e-05
-8.80089501151815e-05,0.00011446792632341385,-4.374220225145109e-05,1.9491082639433444e-05
-8.001571404747665e-05,0.00014117527462076396,-4.035393794765696e-05,1.8925336917163804e-05
-8.061614789767191e-05,0.00016177823999896646,-3.994128564954735e-05,1.6415924619650468e-05
-8.40408174553886e-05,0.00016207320732064545,-4.316243212088011e-05,1.3619640412798617e-05
-8.402498497162014e-05,0.00012826862803194672,-4.513003659667447e-05,8.47721821628511e-06
-7.942342926980928e-05,6.199420022312552e-05,-4.353560143499635e-05,5.664589934895048e-06
-7.23620833014138e-05,-7.919364179542754e-06,-4.3344636651454493e-05,6.7816949922416825e-06
-6.732466135872528e-05,-4.5242311898618937e-05,-4.194322900730185e-05,1.2698235877905972e-05
-6.420649151550606e-05,-3.936648499802686e-05,-4.0745577280176803e-05,2.052122727036476e-05
-5.848200089531019e-05,-1.634927320992574e-05,-3.9482052670791745e-05,2.7399277314543724e-05
-5.041967233410105e-05,-9.260190267923463e-07,-3.653236126410775e-05,2.8835071134380996e-05
-4.337542486609891e-05,9.196145583700854e-06,-3.491409370326437e-05,2.5013103368110023e-05
-4.0337519749300554e-05,2.2498263206216507e-05,-3.317063965369016e-05,2.0425772163434885e-05
-3.856797411572188e-05,3.277631913078949e-05,-2.918592326750513e-05,1.745356166793499e-05
-3.4399930882500485e-05,3.546482912497595e-05,-2.391851376160048e-05,1.6203519408009015e-05
-2.437817420286592e-05,3.4798656997736543e-05,-2.1900341380387545e-05,1.7243324691662565e-05
-1.3300917089509312e-05,3.480573286651634e-05,-2.24904106289614e-05,2.1130783352418803e-05
-8.750099368626252e-06,3.5848646803060547e-05,-1.838644311646931e-05,2.3592929210281e-05
-1.0640706932463218e-05,3.833314258372411e-05,-8.417428944085259e-06,2.3735005015623756e-05
-1.0908815966104157e-05,4.101255035493523e-05,-1.3576192259279196e-06,2.446458711347077e-05
-8.808163329376839e-06,3.734247729880735e-05,9.791391448743525e-07,2.7345187845639884e-05
-1.1528487448231317e-05,2.69001247943379e-05,3.860102424368961e-06,2.9226683182059787e-05
-1.8618595277075656e-05,1.680957393546123e-05,4.899270606983919e-06,2.768336889857892e-05
-2.1571637262240984e-05,1.3186027899791952e-05,1.679040764202e-07,2.549415330577176e-05
-1.7465130440541543e-05,1.946605698321946e-05,-6.9380503191496246e-06,2.773341657302808e-05
-1.5638461263733916e-05,3.420233042561449e-05,-1.4088756870478392e-05,3.0956500268075615e-05
-2.0501503968262114e-05,4.5334742026170716e-05,-1.87788755283691e-05,3.6334899050416425e-05
-2.6070485546370037e-05,5.061384945292957e-05,-2.0686018615378998e-05,4.117575372220017e-05
-3.4323151339776814e-05,5.625324047286995e-05,-1.948788485606201e-05,4.052905933349393e-05
-4.190258914604783e-05,5.991055513732135e-05,-1.5240001630445477e-05,4.090528091182932e-05
-4.498332054936327e-05,5.533141302294098e-05,-1.4266316611610819e-05,3.9185215428005904e-05
-5.087027602712624e-05,4.4217777031008154e-05,-1.740870538924355e-05,3.261780148022808e-05
-5.86410824325867e-05,3.35481199726928e-05,-2.6404579330119304e-05,2.477928501321003e-05
-6.809130718465894e-05,2.9189213819336146e-05,-3.696841304190457e-05,1.581351170898415e-05
-7.028027903288603e-05,2.9247959901113063e-05,-3.8946516724536195e-05,1.3835183381161187e-05
-6.748039595549926e-05,2.5912915589287877e-05,-3.675592233776115e-05,1.830493965826463e-05
-6.403222505468875e-05,2.9235070542199537e-05,-3.610924250097014e-05,2.3291369871003553e-05
-5.998965571052395e-05,4.39676150563173e-05,-3.64656989404466e-05,2.6421404982102104e-05
-5.261012483970262e-05,5.4781859944341704e-05,-3.514665877446532e-05,2.8464908609748818e-05
-4.148032166995108e-05,5.434740160126239e-05,-3.1452407711185515e-05,3.144549555145204e-05
-3.387285687495023e-05,4.6807992475805804e-05,-2.7929549105465412e-05,3.374997686478309e-05
-3.538838791428134e-05,3.678532084450126e-05,-2.665246938704513e-05,3.3311873266939074e-05
-4.357898797024973e-05,2.4587372536188923e-05,-2.7978319849353284e-05,3.172246215399355e-05
-4.963948595104739e-05,1.2415134733601008e-05,-2.884247987822164e-05,2.8564129024744034e-05
-5.2496412536129355e-05,5.624440746032633e-06,-2.5623568944865838e-05,2.3847938791732304e-05
-5.5138752941275015e-05,7.91217007645173e-06,-2.076788769045379e-05,2.1242647562758066e-05
-6.096941797295585e-05,1.4118370017968118e-05,-1.9803141185548156e-05,2.0672643586294726e-05
-6.896356353536248e-05,1.8162592823500745e-05,-1.975774284801446e-05,1.8441263819113374e-05
-7.782405009493232e-05,2.1079578800708987e-05,-1.6858053641044535e-05,1.2592721759574488e-05
-8.082148997345939e-05,2.4017514078877866e-05,-1.5981619071681052e-05,7.1567687882634345e-06
-7.319026190089062e-05,2.5597368221497163e-05,-1.7878846847452223e-05,4.573492333292961e-06
-6.312062032520771e-05,2.685826984816231e-05,-1.884312223410234e-05,3.64757534043747e-06
-6.529807433253154e-05,3.229498179280199e-05,-2.1919446226092987e-05,3.892547795203427e-07
-7.525466207880527e-05,4.1227383917430416e-05,-2.618666985654272e-05,-1.873711084954266e-06
-7.51386396586895e-05,4.1969793528551236e-05,-2.961267819046043e-05,3.4769714147842024e-06
-5.9608748415485024e-05,2.750535713857971e-05,-3.297452349215746e-05,2.033834061876405e-05
-4.376843207865022e-05,7.023645139270229e-06,-3.511296017677523e-05,4.1670540667837486e-05
-3.259428558521904e-05,-1.3251695236249361e-05,-3.343030402902514e-05,5.364726894185878e-05
-2.567110823292751e-05,-2.781491457426455e-05,-3.415037281229161e-05,5.254200368653983e-05
-2.8476244551711716e-05,-2.917737583629787e-05,-3.998200554633513e-05,4.397765587782487e-05
-3.5934586776420474e-05,-1.2271291780052707e-05,-4.755146073875949e-05,3.245471089030616e-05
-3.905102130374871e-05,1.4863414435239974e-05,-4.960951628163457e-05,2.4711449441383593e-05
-3.321070471429266e-05,3.55511401721742e-05,-4.202457421342842e-05,2.317959297215566e-05
-2.866817703761626e-05,5.070756014902145e-05,-3.679591463878751e-05,2.5777762857615016e-05
-3.339580143801868e-05,6.46027474431321e-05,-3.7086228985572234e-05,3.002217817993369e-05
-3.881966040353291e-05,7.81220878707245e-05,-3.891393862431869e-05,3.243191531510092e-05
-3.8610902265645564e-05,8.90138981048949e-05,-3.684666444314644e-05,3.567617750377394e-05
-3.636280234786682e-05,9.1232628619764e-05,-3.230579386581667e-05,4.06633953389246e-05
-4.1208357288269326e-05,8.629035437479615e-05,-2.796696026052814e-05,4.141293902648613e-05
-5.4161439038580284e-05,8.846249693306163e-05,-2.3984461222426035e-05,3.3106309274444357e-05
-6.735620991094038e-05,0.00010046498937299475,-2.0492259864113294e-05,1.910593346110545e-05
-7.173979975050315e-05,0.00010519197530811653,-2.1072739400551654e-05,7.011240086285397e-06
-6.719114753650501e-05,9.670380677562207e-05,-3.02511816698825e-05,3.4117031191271963e-06
-6.11829455010593e-05,8.458518277620897e-05,-4.000537228421308e-05,5.675914962921524e-06
-5.7008150179171935e-05,7.754371472401544e-05,-4.11782821174711e-05,1.0525382094783708e-05
-5.61802698939573e-05,7.67573801567778e-05,-3.3983254979830235e-05,1.740651532600168e-05
-6.010314973536879e-05,7.65655713621527e-05,-2.6030369554064237e-05,2.4436611056444235e-05
-6.912565004313365e-05,6.778178794775158e-05,-2.297666469530668e-05,2.7920561478822492e-05
-8.087386231636629e-05,5.2167852118145674e-05,-2.698591742955614e-05,2.7602882255450822e-05
-8.719023753656074e-05,3.157923856633715e-05,-3.1533989385934547e-05,2.643079642439261e-05
-8.279611938633025e-05,6.701861821056809e-06,-2.9438813726301305e-05,2.62600169662619e-05
-7.772404205752537e-05,-1.042875101120444e-05,-2.650745227583684e-05,2.6112262276001275e-05
-7.739106513326988e-05,-4.741363227367401e-06,-3.055334309465252e-05,1.5008187801868189e-05
-7.740385626675561e-05,2.304687768628355e-06,-3.5929693694924936e-05,1.9221337765884527e-07
-6.53605893603526e-05,-1.3364786354941316e-05,-3.422686495468952e-05,1.6927090200624662e-06
-4.114276816835627e-05,-4.786936187883839e-05,-2.2740572603652254e-05,2.324705565115437e-05
-2.642705658217892e-05,-8.944571891333908e-05,-1.0523329365241807e-05,4.537471249932423e-05
-3.138593820040114e-05,-0.00011096458183601499,-8.719054676475935e-06,4.49875406047795e-05
-4.1350573155796155e-05,-0.00010598310473142192,-1.3708172446058597e-05,2.9139800972188823e-05
-3.8318354199873284e-05,-8.711000555194914e-05,-1.8809199900715612e-05,2.0593339286278933e-05
-2.0213441530358978e-05,-6.744348502252251e-05,-2.1776526409666985e-05,2.6143698050873354e-05
-3.5836940242006676e-06,-4.687398541136645e-05,-2.2536381948157214e-05,3.583084617275745e-05
-6.648651378782233e-06,-1.6899311958695762e-05,-2.1886246031499468e-05,4.2997096898034215e-05
-2.701741505006794e-05,2.312042488483712e-05,-2.1365522115956992e-05,4.5321521611185744e-05
-4.816573709831573e-05,5.9555670304689556e-05,-2.0764438886544667e-05,4.244086085236631e-05
-5.769112249254249e-05,8.050568430917338e-05,-2.262871748826001e-05,3.6883106076857075e-05
-5.476911974255927e-05,8.863605035003275e-05,-2.6602141588227823e-05,3.2556614314671606e-05
-4.758091745316051e-05,9.55882715061307e-05,-2.9412723961286247e-05,2.994151145685464e-05
-4.268150951247662e-05,0.00011055175127694383,-2.8625570848817006e-05,2.9347558665904216e-05
-4.235460437485017e-05,0.00012831814819946885,-2.531964855734259e-05,3.016288610524498e-05
-4.612529301084578e-05,0.00013790774391964078,-2.2847789296065457e-05,3.072833351325244e-05
-5.279897231957875e-05,0.00013540303916670382,-2.2679789253743365e-05,3.245297193643637e-05
-6.218488852027804e-05,0.00012861439608968794,-2.4585086066508666e-05,3.405005554668605e-05
-6.93917681928724e-05,0.0001236458629136905,-2.3040671294438653e-05,3.2023657695390284e-05
-6.987722736084834e-05,0.00011823255044873804,-1.908160629682243e-05,2.7829013561131433e-05
-6.683972605969757e-05,0.00010574023326626047,-1.6693913494236767e-05,2.2831192836747505e-05
-6.154674338176847e-05,8.907166920835152e-05,-1.7224128896486945e-05,1.7496495274826884e-05
-5.705345029127784e-05,7.192677003331482e-05,-2.3482132746721618e-05,1.5196421372820623e-05
-5.614658948616125e-05,5.304836668074131e-05,-3.225365435355343e-05,1.5651123248972e-05
-5.828626672155224e-05,3.2127882150234655e-05,-3.573747380869463e-05,1.6461373888887465e-05
-6.356102676363662e-05,1.095105199055979e-05,-3.380423004273325e-05,1.5885316315689124e-05
-6.546109943883494e-05,-9.711287020763848e-06,-3.476495112408884e-05,1.4914164239598904e-05
-5.974604937364347e-05,-2.7322999812895432e-05,-3.656284388853237e-05,1.395679919369286e-05
-4.8670768592273816e-05,-2.9850220016669482e-05,-3.450660369708203e-05,1.199877806357108e-05
-3.8937210774747655e-05,-1.4393819583347067e-05,-3.285748607595451e-05,1.1497190826048609e-05
-3.6331170122139156e-05,-2.6318916752643418e-06,-3.166288661304861e-05,1.4579315575247165e-05
-3.6166828067507595e-05,-3.375662345206365e-06,-3.114344508503564e-05,1.7610405848245136e-05
-3.63685394404456e-05,-9.772104476724053e-07,-2.885648063966073e-05,1.7685884813545272e-05
-4.1917483031284064e-05,1.1073751920775976e-05,-2.48635042225942e-05,1.7230740922968835e-05
-4.847809759667143e-05,2.124974889738951e-05,-2.391774432908278e-05,1.7170315913972445e-05
-5.23017552040983e-05,2.640810635057278e-05,-2.499434231140185e-05,1.5179322872427292e-05
-5.268373934086412e-05,3.095419378951192e-05,-2.6207790142507292e-05,1.2183308172097895e-05
-5.2086292271269485e-05,3.595813177525997e-05,-2.6048805011669174e-05,1.0088923772855196e-05
-5.1011393225053325e-05,4.097284909221344e-05,-2.4566408683313057e-05,8.919109859562013e-06
-4.8113550292328e-05,4.3552583520067856e-05,-2.127400330209639e-05,7.49419086787384e-06
-4.359854938229546e-05,3.414139791857451e-05,-1.8464799723005854e-05,8.555311978852842e-06
-3.979540997534059e-05,1.0018633474828675e-05,-2.007310467888601e-05,1.3085727914585732e-05
-3.727930743480101e-05,-7.306769020942738e-06,-2.295667763974052e-05,1.7830963770393282e-05
-3.682336682686582e-05,-4.3523488102437113e-07,-2.2009829990565777e-05,2.0195604520267807e-05
-4.3100397306261584e-05,1.8661979993339628e-05,-1.7932285118149593e-05,2.062517341983039e-05
-5.120970672578551e-05,3.0321902158902958e-05,-1.2667529517784715e-05,2.0977897293050773e-05
-5.1937771786469966e-05,2.952092108898796e-05,-9.114406566368416e-06,2.0406661860761233e-05
-4.659155456465669e-05,2.0797371689695865e-05,-9.276224773202557e-06,1.902890289784409e-05
-4.541587259154767e-05,1.3918695913162082e-05,-1.058354609995149e-05,1.5818419342394918e-05
-4.8556339606875554e-05,6.021836725267349e-06,-8.234793313022237e-06,1.2294693988224026e-05
-5.0034064770443365e-05,-4.853344307775842e-06,-6.97548102834844e-06,9.401474926562514e-06
-5.0861272029578686e-05,-1.8207685570814647e-05,-8.300363333546557e-06,1.0795043635880575e-05
-4.702386650023982e-05,-3.215483229723759e-05,-9.243236490874551e-06,1.8287242710357532e-05
-4.051202995469794e-05,-3.186528556398116e-05,-1.6724328816053458e-05,2.3837437765905634e-05
-4.0420127334073186e-05,-2.1489198843482882e-05,-2.662786573637277e-05,2.6710127713158727e-05
-4.805656135431491e-05,-1.4661608474852983e-05,-3.094959902227856e-05,2.3890097509138286e-05
-5.471278200275265e-05,-3.3982803415710805e-06,-3.10704272123985e-05,1.6842284821905196e-05
-5.4222382459556684e-05,1.3550627954828087e-05,-3.2222938898485154e-05,1.1868080036947504e-05
-5.205153502174653e-05,2.4398461391683668e-05,-3.4274151403224096e-05,1.2752362636092585e-05
-4.516543776844628e-05,2.8655809728661552e-05,-3.395113890292123e-05,1.9471932318992913e-05
-3.29862414218951e-05,3.5793233109870926e-05,-2.754839624685701e-05,2.733497785811778e-05
-2.074197618640028e-05,4.8615755076752976e-05,-2.1132538677193224e-05,3.4403787140036e-05
-1.6824191334308125e-05,7.50320396036841e-05,-1.9864761270582676e-05,3.6822151741944253e-05
-2.350453542021569e-05,0.00011531365453265607,-2.13945095310919e-05,3.464290784904733e-05
-3.950640530092642e-05,0.00015024474123492837,-2.3145490558817983e-05,2.9829800041625276e-05
-5.942521238466725e-05,0.00016078657063189894,-2.293356192240026e-05,2.9050079319858924e-05
-7.586430001538247e-05,0.00013967386621516198,-2.2054524379200302e-05,2.8919917895109393e-05
-8.397306373808533e-05,8.912462362786755e-05,-2.54363603744423e-05,1.990850614674855e-05
-8.592243830207735e-05,2.937322460638825e-05,-3.5371216654311866e-05,1.1258346148679266e-06
-8.056984370341524e-05,-6.38419805909507e-06,-4.1868010157486424e-05,-1.1651735803752672e-05
-6.277493230300024e-05,-1.209116726386128e-05,-3.560923505574465e-05,-2.288965106345131e-06
-3.789049878832884e-05,-3.4670626973820617e-06,-2.3144773876992986e-05,2.42278565565357e-05
-1.6529764252481982e-05,8.451121175312437e-06,-1.5355239156633615e-05,4.84928568766918e-05
-1.0545954864937812e-05,2.2257705495576374e-05,-9.628981388232205e-06,5.4764670494478196e-05
-1.813614107959438e-05,3.878897041431628e-05,-8.541315764887258e-06,4.6005963667994365e-05
-3.0341398087330163e-05,5.3431911510415375e-05,-1.1355660717526916e-05,3.558640310075134e-05
-3.71297137462534e-05,6.110322283348069e-05,-1.2200636774650775e-05,3.03417255054228e-05
-4.051102587254718e-05,6.577428575837985e-05,-1.3231941011326853e-05,2.915458935603965e-05
-4.9645608669379726e-05,7.160255336202681e-05,-1.847699604695663e-05,2.8686137738986872e-05
-5.767306356574409e-05,7.625872967764735e-05,-2.4115992346196435e-05,2.5354222088935785e-05
-5.8406869356986135e-05,7.422493945341557e-05,-2.570738797658123e-05,2.109529850713443e-05
-5.9161313402000815e-05,5.884763959329575e-05,-2.6122363124159165e-05,1.77120618900517e-05
-6.392438808688894e-05,3.470202500466257e-05,-2.400131052127108e-05,1.773095573298633e-05
-7.009021646808833e-05,2.3370921553578228e-05,-2.0555937226163223e-05,1.7604983440833166e-05
-7.248706970131025e-05,1.7285348803852685e-05,-1.956233973032795e-05,1.199257076223148e-05
-6.711155583616346e-05,-5.419151420937851e-06,-2.308387411176227e-05,3.6962753711122787e-06
-5.097067332826555e-05,-3.174469020450488e-05,-2.6693367544794455e-05,2.8708029731205897e-06
-2.712174682528712e-05,-2.8598004064406268e-05,-2.7412503186496906e-05,1.4050398931431118e-05
-5.686355507350527e-06,6.002148438710719e-06,-2.982136902573984e-05,2.686842708499171e-05
