-5.052359483670443e-05,8.394543328904547e-06,-2.712501009227708e-05,2.8145022952230647e-05
-5.2556042646756396e-05,3.268575710535515e-06,-2.524036062823143e-05,2.3824515665182844e-05
-5.0040282076224685e-05,1.12780492145248e-06,-2.4390914404648356e-05,1.712538505671546e-05
-4.472117143450305e-05,-3.1215921580951544e-07,-2.3799429982318543e-05,1.76181838469347e-05
-4.2815303459065035e-05,-1.9563128716981737e-06,-2.5859633751679212e-05,2.05767009902047e-05
-4.955616168444976e-05,-2.02084265765734e-06,-2.949160807474982e-05,2.563696398283355e-05
-5.26563344465103e-05,5.679197329300223e-06,-2.9143700885470025e-05,3.242230377509259e-05
-5.059863178757951e-05,1.4630577425123192e-05,-2.8979606213397346e-05,3.664906034828164e-05
-4.706716208602302e-05,1.942086782946717e-05,-3.3030682971002534e-05,3.6047615139978006e-05
-4.358034857432358e-05,2.221629438281525e-05,-3.393920269445516e-05,3.068827936658636e-05
-4.597909719450399e-05,2.882172520912718e-05,-3.1233201298164204e-05,2.583671812317334e-05
-5.3159892559051514e-05,4.463602090254426e-05,-2.5524499505991116e-05,2.477104681020137e-05
-5.732229692512192e-05,6.479535659309477e-05,-1.974901169887744e-05,2.944561856565997e-05
-5.65530572202988e-05,7.392965926555917e-05,-1.816131225496065e-05,3.5732340620597824e-05
-5.640374365611933e-05,6.749273597961292e-05,-2.069299080176279e-05,3.8924863474676386e-05
-5.4624197218799964e-05,5.483333006850444e-05,-2.208881232945714e-05,3.730829121195711e-05
-4.9452457460574806e-05,4.36978843936231e-05,-2.1988191292621195e-05,3.453893805271946e-05
-4.5048447645967826e-05,3.745422509382479e-05,-2.264989416289609e-05,3.5577839298639446e-05
-4.431447450770065e-05,3.583064244594425e-05,-2.1316840502549894e-05,3.958377055823803e-05
-4.541863381746225e-05,3.851220753858797e-05,-1.738256287353579e-05,4.290527795092203e-05
-5.017403600504622e-05,4.236993481754325e-05,-1.5102365978236776e-05,4.326909038354643e-05
-5.6501961807953194e-05,4.146218634559773e-05,-1.877691101981327e-05,3.988299795310013e-05
-5.839589721290395e-05,3.450567237450741e-05,-2.7237274480285123e-05,3.384656156413257e-05
-6.238657078938559e-05,2.7440599296824075e-05,-3.114312858087942e-05,3.1849580409470946e-05
-6.935794954188168e-05,2.1455882233567536e-05,-2.7273788873571903e-05,3.650961662060581e-05
-7.030847336864099e-05,1.5575420547975227e-05,-2.4614160793134943e-05,4.129038279643282e-05
-6.659334758296609e-05,2.188191319874022e-05,-2.5658549930085428e-05,4.2536703404039145e-05
-6.0582424339372665e-05,4.783970143762417e-05,-2.4576642317697406e-05,3.869799547828734e-05
-5.523699292098172e-05,6.162112549645826e-05,-2.354946445848327e-05,3.1203566322801635e-05
-5.102885188534856e-05,5.5027187045197934e-05,-2.3021117158350535e-05,2.8663429475273006e-05
-4.703150625573471e-05,4.2770832806127146e-05,-2.087288157781586e-05,3.1128911359701306e-05
-4.373413321445696e-05,3.022291093657259e-05,-2.1915346223977394e-05,3.509840098558925e-05
-4.093437019037083e-05,2.322382715647109e-05,-2.381248486926779e-05,3.3925287425518036e-05
-3.889236177201383e-05,1.132750458054943e-05,-2.4203283828683197e-05,2.878161467378959e-05
-3.7328078178688884e-05,-5.828971097798785e-06,-2.198293987021316e-05,2.476464032952208e-05
-3.5927303542848676e-05,-2.5307062969659455e-05,-2.071314702334348e-05,2.3573797079734504e-05
-3.324683348182589e-05,-4.4250737119000405e-05,-2.355275682930369e-05,2.6447236450621858e-05
-3.276055940659717e-05,-5.355002576834522e-05,-2.6726158466772176e-05,2.9323471608222462e-05
-3.686636409838684e-05,-4.149040250922553e-05,-2.5239896785933524e-05,2.614592267491389e-05
-4.381625694804825e-05,-1.2358254025457427e-05,-2.2699867258779705e-05,1.708502350084018e-05
-5.0977167120436206e-05,1.3950240827398375e-05,-1.974713995878119e-05,1.0919721717073116e-05
-5.496548328665085e-05,2.228604535048362e-05,-1.6846875951159745e-05,9.415142812940758e-06
-5.604089528787881e-05,1.538574906589929e-05,-1.774677548382897e-05,9.622308425605297e-06
-5.900551695958711e-05,1.3712643522012513e-05,-1.9337254343554378e-05,1.0213877430942375e-05
-6.516625580843538e-05,3.361880226293579e-05,-1.820451689127367e-05,8.765271559241228e-06
-7.21363176126033e-05,7.02013130648993e-05,-1.756588608259335e-05,6.224212484085001e-06
-7.609873864566907e-05,9.98744071694091e-05,-2.1480915165739134e-05,7.964462383824866e-06
-7.66670927987434e-05,0.0001082219896488823,-2.4947325073298998e-05,1.255719325854443e-05
-7.703876326559111e-05,9.36307042138651e-05,-2.4178571038646623e-05,1.9092085494776256e-05
-7.408187229884788e-05,6.41223305137828e-05,-2.09144545806339e-05,3.041947820747737e-05
-6.833395309513435e-05,3.115020808763802e-05,-2.2187356080394238e-05,4.0959166653919965e-05
-6.36010809103027e-05,1.1074211215600371e-05,-2.711098932195455e-05,4.023013389087282e-05
-5.7638866564957425e-05,1.1610098226810805e-05,-2.9387674658210017e-05,3.0587685614591464e-05
-5.095795131637715e-05,2.3101421902538277e-05,-2.7484858946991153e-05,2.115581082762219e-05
-4.496781184570864e-05,2.8808819479309022e-05,-2.5224057026207447e-05,1.5882886145845987e-05
-4.0219234506366774e-05,1.780278398655355e-05,-2.84504330920754e-05,1.56836467795074e-05
-3.8493617466883734e-05,1.08008534880355e-05,-3.1562572985421866e-05,1.7456981368013658e-05
-4.157004877924919e-05,1.9053844880545512e-05,-3.214482785551809e-05,1.9455801520962268e-05
-4.545553383650258e-05,3.224916144972667e-05,-3.304610072518699e-05,1.866284765128512e-05
-4.9503731133881956e-05,4.8032434278866276e-05,-3.3667416573734954e-05,1.604599856364075e-05
-5.2469269576249644e-05,5.8288245782023296e-05,-3.6480854760156944e-05,1.5648069165763445e-05
-5.427408541436307e-05,5.964564479654655e-05,-3.6846155126113445e-05,1.878979310276918e-05
-5.621627133223228e-05,5.589328065980226e-05,-3.37069395754952e-05,2.413555557723157e-05
-5.7437559007667005e-05,5.073027568869293e-05,-2.9640550565090962e-05,2.3182374206953682e-05
-5.709320248570293e-05,4.872642603004351e-05,-2.7640466214506887e-05,1.6063682778622024e-05
-5.218108344706707e-05,5.036509901401587e-05,-2.7194693757337518e-05,1.2071864148310851e-05
-4.8213754780590534e-05,4.29274768976029e-05,-2.71749850071501e-05,1.1748585166060366e-05
-4.868941687163897e-05,2.2819136574980803e-05,-2.5879358872771263e-05,1.0855590517167002e-05
-4.905877722194418e-05,-4.073177933605621e-06,-2.2907905076863244e-05,1.0578826731943991e-05
-4.642323619918898e-05,-2.9687238566111773e-05,-2.0457828213693574e-05,1.4765601008548401e-05
-4.402216291055083e-05,-4.018366234959103e-05,-1.8644081137608737e-05,2.057577330560889e-05
-4.435188020579517e-05,-2.5618521249270998e-05,-1.797554432414472e-05,2.20064048335189e-05
-4.623536369763315e-05,4.443350917426869e-06,-1.9568677089409903e-05,2.1043262677267194e-05
-4.532088860287331e-05,2.8916701921843924e-05,-2.3710741515969858e-05,2.1497731722774915e-05
-4.3621934310067445e-05,3.8726520870113745e-05,-2.4945265977294184e-05,2.1340161765692756e-05
-4.37199960288126e-05,3.589598054531962e-05,-2.375987241975963e-05,1.986741517612245e-05
-4.467981489142403e-05,2.8605047191376798e-05,-2.3221167793963104e-05,2.1216657842160203e-05
-4.894393350696191e-05,2.3509308448410593e-05,-2.3682063329033554e-05,2.4528693757019937e-05
-5.38979256816674e-05,2.1680274585378356e-05,-2.5179595468216576e-05,2.410081469861325e-05
-5.46128285350278e-05,2.3541289920103736e-05,-2.6674330001696944e-05,2.394777038716711e-05
-5.168935967958532e-05,2.782714545901399e-05,-2.5135112082352862e-05,2.8726566597470082e-05
-5.1085047743981704e-05,3.076799839618616e-05,-2.5745488528627902e-05,3.219887730665505e-05
-5.103963485453278e-05,3.768167516682297e-05,-3.180380372214131e-05,3.0869323381921276e-05
-4.670357157010585e-05,4.47078091383446e-05,-3.298005321994424e-05,2.7413570933276787e-05
-4.189480023342185e-05,4.644613727577962e-05,-2.8377327907946892e-05,2.4611288608866744e-05
-3.9986480260267854e-05,4.3223859393037856e-05,-2.4671207938808948e-05,2.3602873625350185e-05
-3.911841122317128e-05,4.1159863030770794e-05,-2.249725366709754e-05,2.0935174688929692e-05
-3.9544371247757226e-05,2.9646060283994302e-05,-2.2397263819584623e-05,1.6849206076585688e-05
-4.41433148807846e-05,3.324107865410042e-06,-2.5051840566447936e-05,1.766770401445683e-05
-4.7315843403339386e-05,-1.4039233974472154e-05,-3.076723442063667e-05,2.1610323528875597e-05
-4.6261859097285196e-05,-9.301586032961495e-06,-3.239938450860791e-05,2.1473180822795257e-05
-4.4008313125232235e-05,7.543754236394307e-06,-2.8320760975475423e-05,1.8388538592262194e-05
-4.3651794840116054e-05,2.197946741944179e-05,-2.4659762857481837e-05,1.885273195512127e-05
-4.495072425925173e-05,2.9243732569739223e-05,-2.41002253460465e-05,2.0820320060011e-05
-4.507796620600857e-05,3.21119514410384e-05,-2.5176892449962907e-05,1.9790055375779048e-05
-4.249782068654895e-05,3.870244472636841e-05,-2.395629053353332e-05,1.8164089851779863e-05
-3.9783233660273254e-05,4.580648601404391e-05,-2.0379289708216675e-05,1.873155815701466e-05
-4.155165152042173e-05,4.379025995149277e-05,-1.9104407328995876e-05,1.9209714082535356e-05
-4.846550655202009e-05,3.5839591873809695e-05,-2.4095204935292713e-05,1.7983404177357443e-05
-5.549909838009626e-05,3.860677679767832e-05,-3.0999355658423156e-05,1.8482718587620184e-05
-6.0627182392636314e-05,5.50807781110052e-05,-3.3929118217201903e-05,2.2665954020339996e-05
-6.511052197311074e-05,7.00304881320335e-05,-3.35882359649986e-05,2.7135882191942073e-05
-6.600875349249691e-05,7.09908053977415e-05,-3.319045208627358e-05,2.5154367904178798e-05
-6.815257074777037e-05,6.535847933264449e-05,-3.502664912957698e-05,2.0245965060894378e-05
-7.79587498982437e-05,7.06894279574044e-05,-3.5962693800684065e-05,2.0082154151168652e-05
-8.572512888349593e-05,8.551472274120897e-05,-3.457334969425574e-05,2.25726944336202e-05
-8.09190096333623e-05,9.442385635338724e-05,-3.491946335998364e-05,2.271656740049366e-05
-7.153255137382075e-05,9.050301014212891e-05,-3.5224835301050916e-05,2.230591962870676e-05
-6.506914360215887e-05,7.511387229897082e-05,-3.583658326533623e-05,2.4365699573536403e-05
-6.150725675979629e-05,5.9714624512707815e-05,-3.627262049121782e-05,2.40793979173759e-05
-5.849526132806204e-05,4.908495247946121e-05,-3.648933125077747e-05,2.417766154394485e-05
-5.6150671298382804e-05,3.951591861550696e-05,-3.384971932973713e-05,2.729077277763281e-05
-5.73413708480075e-05,3.3220643672393635e-05,-2.9071883545839228e-05,3.140088665531948e-05
-5.975046951789409e-05,2.510431659175083e-05,-2.6978477762895636e-05,3.6134206311544403e-05
-5.756059545092285e-05,3.463489747446147e-06,-2.5100242055486888e-05,3.780341285164468e-05
-5.132421210873872e-05,-2.1389732864918187e-05,-2.35945190070197e-05,3.704612754518166e-05
-4.276818435755558e-05,-2.7035666789743118e-05,-2.2739137421012856e-05,3.655072214314714e-05
-3.8686266634613276e-05,-1.2986964975425508e-05,-2.1330082745407708e-05,3.5667369957081974e-05
-3.876472692354582e-05,5.162475645192899e-06,-1.9698971300385892e-05,3.103310882579535e-05
-3.676413689390756e-05,1.3723722986469511e-05,-1.863736179075204e-05,2.5382081730640493e-05
-3.40478218276985e-05,2.257254527648911e-05,-1.8264356185682118e-05,2.1585810827673413e-05
-3.3675496524665505e-05,4.386525324662216e-05,-1.93745599972317e-05,1.9628641894087195e-05
-3.709684096975252e-05,7.339944568229839e-05,-2.1006349925301038e-05,2.115448660333641e-05
-4.218011599732563e-05,9.822972788242623e-05,-2.1944919353700243e-05,2.5966710381908342e-05
-4.868069299845956e-05,0.00011645366612356156,-2.215313543274533e-05,3.256782656535506e-05
-5.256608346826397e-05,0.00013510999269783497,-2.247478005301673e-05,3.869455758831464e-05
-5.224719279794954e-05,0.0001536988711450249,-2.38860011450015e-05,4.230276681482792e-05
-5.087571116746403e-05,0.0001543255930300802,-2.615874655020889e-05,4.167364022578113e-05
-5.1077829994028434e-05,0.00012383826833683997,-2.6848787456401624e-05,3.822072176262736e-05
-5.042243719799444e-05,8.041397813940421e-05,-2.5121878934442066e-05,3.549641041900031e-05
-5.019833770347759e-05,4.6266715798992664e-05,-2.694976683415007e-05,3.305721111246385e-05
-5.16137843078468e-05,2.1836580344825052e-05,-3.1597912311553955e-05,2.90883363049943e-05
-5.1288330723764375e-05,-1.2408647307893261e-05,-3.368753459653817e-05,2.5986522814491764e-05
-4.671682108892128e-05,-6.162517092889175e-05,-3.8026078982511535e-05,2.322302316315472e-05
-3.975295476266183e-05,-9.432597289560363e-05,-4.315807018429041e-05,1.9993027308373712e-05
-3.370344711584039e-05,-7.979133806657046e-05,-4.285536124370992e-05,1.4765601918043103e-05
-3.4493546991143376e-05,-4.2815841879928485e-05,-3.664061659947038e-05,1.2705634617304895e-05
-4.219214679324068e-05,-2.1861600544070825e-05,-3.0160159440129064e-05,1.3450511687551625e-05
-4.953398820362054e-05,-2.4323089746758342e-05,-3.124352224403992e-05,1.1267430636507925e-05
-5.412609607446939e-05,-3.26757290167734e-05,-3.193928569089621e-05,1.0637340892571956e-05
-5.328363840817474e-05,-2.5173258109134622e-05,-2.6367450118414126e-05,1.2194956070743501e-05
-5.1682513003470376e-05,-6.1106520661269315e-06,-1.7521124391350895e-05,1.6247748135356233e-05
-5.394502295530401e-05,1.4171138900564983e-05,-1.1912357877008617e-05,2.0726229195133783e-05
-5.435942512121983e-05,3.6675242881756276e-05,-1.1228532457607798e-05,2.2677028027828783e-05
-4.7019693738548085e-05,5.7682384067447856e-05,-1.2679663996095769e-05,2.101416976074688e-05
-3.631009894888848e-05,6.96078859618865e-05,-1.7730453691910952e-05,2.196754576289095e-05
-2.7363588742446154e-05,7.457334868377075e-05,-2.115307688654866e-05,2.6644509489415213e-05
-2.2540236386703327e-05,7.735344115644693e-05,-2.02406408789102e-05,2.969739944091998e-05
-2.3395909011014737e-05,7.867717067711055e-05,-1.7552605640958063e-05,2.8411628591129556e-05
-2.9312017431948334e-05,7.476723112631589e-05,-1.7986878447118215e-05,2.4982371542137116e-05
-3.6518205888569355e-05,6.155124719953164e-05,-2.1480889699887484e-05,2.176744965254329e-05
-4.187527156318538e-05,4.5876633521402255e-05,-2.413821675872896e-05,1.9091710782959126e-05
-4.516141052590683e-05,3.5455839679343626e-05,-2.410990600765217e-05,1.8313012333237566e-05
-4.7384080971824005e-05,2.382873572059907e-05,-2.181551644753199e-05,1.9553930542315356e-05
-4.692575384979136e-05,2.8942404242116027e-06,-2.0396151739987545e-05,2.11799779208377e-05
-4.519522190093994e-05,-2.114742346748244e-05,-2.2060490664443932e-05,2.0742025299114175e-05
-4.7076820919755846e-05,-3.479693623376079e-05,-2.463017517584376e-05,1.9697730749612674e-05
-5.188698196434416e-05,-3.0220468033803627e-05,-2.8447208023862913e-05,1.984518712561112e-05
-5.4339052439900115e-05,-9.869891982816625e-06,-3.420330540393479e-05,2.1300353182596155e-05
-5.4601903684670106e-05,1.173744021798484e-05,-3.799592741415836e-05,2.199643313360866e-05
-5.651537503581494e-05,2.1285621187416837e-05,-3.800895137828775e-05,2.1883099179831333e-05
-6.160727934911847e-05,1.9149518266203813e-05,-3.5376782761886716e-05,2.052100171567872e-05
-6.77327043376863e-05,6.118535111454548e-06,-3.341343472129665e-05,1.6992302334983833e-05
-6.595577724510804e-05,-1.2829183106077835e-05,-3.336145528010093e-05,1.1568748959689401e-05
-5.846889689564705e-05,-2.6673731554183178e-05,-3.505880158627406e-05,9.256107659894042e-06
-5.217063153395429e-05,-2.803348434099462e-05,-3.120814653811976e-05,1.0076323633256834e-05
-5.1288941904203966e-05,-3.180978092132136e-05,-2.3465965568902902e-05,1.1509591786307283e-05
-5.237459481577389e-05,-4.972273382009007e-05,-1.5292796888388693e-05,9.424729796592146e-06
-5.22765694768168e-05,-5.89281007705722e-05,-1.1153440027555916e-05,5.892746230529156e-06
-5.199008955969475e-05,-3.6837285733781755e-05,-1.4144489796308335e-05,8.883062946551945e-06
-5.1044040446868166e-05,9.304036211688071e-06,-1.825497929530684e-05,2.046946610789746e-05
-4.7408386308234185e-05,5.537032484426163e-05,-1.9779146896325983e-05,3.521184407873079e-05
-4.194362190901302e-05,8.676714787725359e-05,-1.7666501662461087e-05,4.48797618446406e-05
-4.4014490413246676e-05,0.00010085192479891703,-1.739930121402722e-05,4.616783553501591e-05
-5.29581775481347e-05,9.913698158925399e-05,-1.8368013115832582e-05,4.2022697016363963e-05
-6.062172178644687e-05,8.526934107067063e-05,-2.0073635823791847e-05,3.723756526596844e-05
-6.643529195571318e-05,7.086712139425799e-05,-2.221734212071169e-05,3.1795982067706063e-05
-6.636217585764825e-05,6.379526894306764e-05,-2.4066597688943148e-05,2.5307206669822335e-05
-6.0741800552932546e-05,5.957506800768897e-05,-2.4287863197969273e-05,2.0533560018520802e-05
-5.829839574289508e-05,5.260767284198664e-05,-2.3832704755477607e-05,1.967690695892088e-05
-6.071553798392415e-05,4.881211862084456e-05,-2.4422048227279447e-05,1.998170409933664e-05
-5.914705616305582e-05,5.522806532098912e-05,-2.596974627522286e-05,2.188075814046897e-05
-5.1273997087264434e-05,6.94003829266876e-05,-2.706368650251534e-05,2.4832115741446614e-05
-4.879601328866556e-05,8.52802477311343e-05,-2.7226247766520828e-05,2.6473710022401065e-05
-5.4732659918954596e-05,9.746450814418495e-05,-2.702611163840629e-05,2.645176755322609e-05
-6.170736742205918e-05,0.00010302691953256726,-2.80924687103834e-05,2.5414232368348166e-05
-6.515186396427453e-05,9.458590648137033e-05,-2.808105455187615e-05,2.225884236395359e-05
-6.147980457171798e-05,6.6920998506248e-05,-2.5907685994752683e-05,1.95620577869704e-05
-5.1720729970838875e-05,4.393733252072707e-05,-2.423339174129069e-05,2.0636123736039735e-05
-4.641736450139433e-05,4.6209421270759776e-05,-2.6947140213451348e-05,2.2977052140049636e-05
-4.596851431415416e-05,5.436825085780583e-05,-3.69246190530248e-05,2.1106667190906592e-05
-4.4961023377254605e-05,4.8639198212185875e-05,-3.737201041076332e-05,1.3134738765074871e-05
-3.937515793950297e-05,3.2639287383062765e-05,-2.8870959795312956e-05,1.044413511408493e-05
-3.304975325590931e-05,1.994170088437386e-05,-2.460927498759702e-05,1.6243087884504348e-05
-3.062360337935388e-05,1.904010059661232e-05,-2.7272613806417212e-05,2.1814381398144178e-05
-2.972826587210875e-05,2.143251731467899e-05,-2.881259933928959e-05,2.510696322133299e-05
-3.101816037087701e-05,2.1275955077726394e-05,-2.7653777578962035e-05,2.8865058993687853e-05
-3.6472960346145555e-05,2.202528776251711e-05,-2.5662748157628812e-05,3.258333163103089e-05
-4.4842825445812196e-05,2.2107153199613094e-05,-2.2167061615618877e-05,3.1417395803146064e-05
-5.044598219683394e-05,2.1983021724736318e-05,-2.5261213522753678e-05,2.6896081180893816e-05
-4.9779780965764076e-05,2.5409297450096346e-05,-3.1658182706451043e-05,2.394615876255557e-05
-4.639567487174645e-05,3.307384031359106e-05,-3.556790034053847e-05,2.3361684725387022e-05
-4.435011578607373e-05,3.8802289054729044e-05,-3.4933276765514165e-05,2.4488508643116802e-05
-4.370090755401179e-05,3.443088280619122e-05,-3.127927993773483e-05,2.6448798962519504e-05
-4.229720798321068e-05,1.625816003070213e-05,-2.8388367354637012e-05,2.5714934963616543e-05
-4.0674560295883566e-05,-5.851589321537176e-06,-2.7887930627912283e-05,2.3899141524452716e-05
-4.1000432247528806e-05,-1.327693371422356e-05,-2.902166306739673e-05,2.4955290427897125e-05
-4.107435597688891e-05,-2.3548038825538242e-06,-2.9599863410112448e-05,2.815968036884442e-05
-3.78592885681428e-05,1.551755121909082e-05,-2.672789923963137e-05,2.8908096282975748e-05
-3.3619293390074745e-05,4.0625640394864604e-05,-2.151797707483638e-05,2.448391205689404e-05
-3.280212331446819e-05,7.895638555055484e-05,-1.9597584469011053e-05,2.0859513824689202e-05
-3.7235498894006014e-05,0.00011534227087395266,-2.1630130504490808e-05,2.2855581846670248e-05
-4.289754724595696e-05,0.00013201855472289026,-2.1984229533700272e-05,2.7372821932658553e-05
-4.2545965698082e-05,0.00012660615902859718,-2.1872074285056442e-05,2.688142740225885e-05
-4.1308729123556986e-05,0.0001064294992829673,-2.3699663870502263e-05,2.269693504786119e-05
-4.407720552990213e-05,8.394272299483418e-05,-2.3638809580006637e-05,1.9185550627298653e-05
-4.939882273902185e-05,5.324319863575511e-05,-2.2518355763168074e-05,1.388708915328607e-05
-5.413432154455222e-05,6.354716333589749e-06,-2.1086168999318033e-05,1.2474117284000386e-05
-5.417735883384012e-05,-3.644966272986494e-05,-2.144209975085687e-05,1.5154731045186054e-05
-4.73173895443324e-05,-4.6097153244772926e-05,-2.1298383217072114e-05,1.880192940006964e-05
-4.043880107928999e-05,-2.741387470450718e-05,-1.782846993592102e-05,2.1158624804229476e-05
-3.6926550819771364e-05,-1.4311955055745784e-05,-1.4715288671141025e-05,2.000844688154757e-05
-3.5873777960659936e-05,-1.9970384528278373e-05,-1.536825584480539e-05,2.0548601241898723e-05
-4.0570561395725235e-05,-2.9368260584305972e-05,-1.9314686142024584e-05,1.911759318318218e-05
-4.050080679007806e-05,-2.76315986411646e-05,-2.3270244128070772e-05,1.3329040484677535e-05
-3.31710180034861e-05,-1.555226117488928e-05,-2.6546667868387885e-05,8.28745305625489e-06
-2.9409982744255103e-05,1.3447927358356537e-06,-2.5462668418185785e-05,9.996446351578925e-06
-3.78604672732763e-05,1.9811661331914365e-05,-2.076467717415653e-05,1.812272057577502e-05
-5.050000618211925e-05,3.695890700328164e-05,-1.6585157936788164e-05,2.9475993869709782e-05
-5.828011126141064e-05,4.798449299414642e-05,-1.730227450025268e-05,3.6955232644686475e-05
-5.941983908996917e-05,4.8161378799704835e-05,-2.0347526515251957e-05,3.369636397110298e-05
-5.651172614307143e-05,3.9316022593993694e-05,-2.2500405975733884e-05,2.3681826860411093e-05
-5.536413300433196e-05,2.9848713893443346e-05,-2.3889801013865508e-05,1.6366691852454096e-05
-5.477167360368185e-05,2.7075140678789467e-05,-2.581213993835263e-05,1.4261430806072894e-05
-5.1254795835120603e-05,3.213534728274681e-05,-2.7529218641575426e-05,1.5515337508986704e-05
-4.6860415750415996e-05,3.808432666119188e-05,-2.6746272851596586e-05,1.9663581042550504e-05
-4.8645026254234836e-05,3.8011756259948015e-05,-2.458082599332556e-05,2.4360637326026335e-05
-4.89772210130468e-05,3.209498026990332e-05,-2.39381715800846e-05,2.7767480787588283e-05
-4.4368785893311724e-05,2.4998269509524107e-05,-2.509462683519814e-05,3.105638825218193e-05
-4.625428482540883e-05,2.230636528111063e-05,-2.462785596435424e-05,3.521806138451211e-05
-5.4557334806304425e-05,2.5683124476927333e-05,-2.5432605980313383e-05,3.698722503031604e-05
-5.78843719267752e-05,3.173615550622344e-05,-2.847860196197871e-05,3.711785757332109e-05
-5.512352072400972e-05,3.9200476749101654e-05,-2.8583701350726187e-05,3.613471199059859e-05
-5.2076236897846684e-05,4.804729906027205e-05,-2.672232767508831e-05,3.0859791877446696e-05
-5.0612943596206605e-05,5.474447607412003e-05,-2.5584065951989032e-05,2.4406823285971768e-05
-5.099731788504869e-05,5.755130769102834e-05,-2.4633203793200664e-05,2.1456384274642915e-05
-5.593115565716289e-05,5.4923537391005084e-05,-2.477951602486428e-05,2.2105199604993686e-05
-6.10795323154889e-05,4.832802005694248e-05,-2.1876128812436946e-05,2.6585244995658286e-05
-6.222876982064918e-05,5.031310865888372e-05,-2.0779361875611357e-05,3.0029235858819447e-05
-6.133521674200892e-05,5.819357465952635e-05,-2.2478290702565573e-05,2.871104152291082e-05
-6.281110108830035e-05,5.873205736861564e-05,-2.3001935915090144e-05,2.6458468710188754e-05
-6.493327964562923e-05,5.479330138769001e-05,-2.1161973563721403e-05,2.6253970645484515e-05
-6.502662290586159e-05,4.831305705010891e-05,-1.7756889064912684e-05,2.8845257475040853e-05
-6.481727177742869e-05,4.0510116377845407e-05,-1.588375926075969e-05,3.138316242257133e-05
-6.441993173211813e-05,3.3764885301934555e-05,-1.6648384189466015e-05,3.0129871447570622e-05
-6.110947288107127e-05,2.8666980142588727e-05,-1.8273793102707714e-05,2.6143739887629636e-05
-5.560714635066688e-05,2.25655639951583e-05,-2.1196283341851085e-05,2.4819224563543685e-05
-5.186760245123878e-05,1.5182335118879564e-05,-2.6603112928569317e-05,2.9001956136198714e-05
-4.7450677811866626e-05,9.748870979819912e-06,-3.221505903638899e-05,3.311644832137972e-05
-4.255854946677573e-05,1.1380308023944963e-05,-3.453922181506641e-05,3.3915042877197266e-05
-4.235844608047046e-05,2.0480883904383518e-05,-3.2240212021861225e-05,3.250973531976342e-05
-4.756113048642874e-05,2.6978052119375207e-05,-3.0170604077284224e-05,3.010781620105263e-05
-5.1338680350454524e-05,2.0521829355857335e-05,-3.0585972126573324e-05,2.847381983883679e-05
-5.0950387958437204e-05,4.847805939789396e-06,-3.137062594760209e-05,2.9281816750881262e-05
-4.841334521188401e-05,-9.182760550174862e-06,-3.126856609014794e-05,2.698858043004293e-05
-5.0123668188462034e-05,-1.6851914551807567e-05,-3.066695717279799e-05,1.9436378352111205e-05
-5.760605199611746e-05,-1.3866365407011472e-05,-3.0181157853803597e-05,1.3414309250947554e-05
-6.139936158433557e-05,-1.633944179957325e-06,-3.085007847403176e-05,1.3294107702677138e-05
-5.9778594732051715e-05,1.2549155144370161e-05,-3.0244065783335827e-05,1.797533877834212e-05
-5.8795172662939876e-05,2.197764115408063e-05,-2.987349762406666e-05,2.1065025066491216e-05
-5.698634413420223e-05,2.953503826574888e-05,-2.8732809369103052e-05,2.3230997612699866e-05
-5.209157825447619e-05,3.659420690382831e-05,-2.891801887017209e-05,2.5384535547345877e-05
-4.934717799187638e-05,4.501829243963584e-05,-3.075394488405436e-05,2.7145568310515955e-05
-5.1021488616243005e-05,5.527495886781253e-05,-2.857628533092793e-05,2.3616854377905838e-05
-5.2903007599525154e-05,6.52768649160862e-05,-2.514438165235333e-05,1.7112455680035055e-05
-5.394239633460529e-05,6.767417653463781e-05,-2.5626244678278454e-05,1.4037892469787039e-05
-5.000097371521406e-05,5.3756783017888665e-05,-3.2379939511884004e-05,9.283627150580287e-06
-4.083220846951008e-05,3.3009840990416706e-05,-4.05725950258784e-05,5.01540716868476e-06
-3.437648410908878e-05,2.0301586118876003e-05,-4.241519491188228e-05,4.022435859951656e-06
-3.847146945190616e-05,2.1938605641480535e-05,-3.9765280234860256e-05,4.443764282768825e-06
-5.1625334890559316e-05,2.932283496193122e-05,-3.913014370482415e-05,2.8635399758059066e-06
-6.277552165556699e-05,3.721297616721131e-05,-4.291187724447809e-05,3.6896726669510826e-06
-6.632562872255221e-05,4.487648402573541e-05,-4.567938231048174e-05,8.032177902350668e-06
-6.43268067506142e-05,5.1312636060174555e-05,-4.3695701606338844e-05,1.1232271390326787e-05
-5.813904863316566e-05,5.7494260545354337e-05,-3.940537862945348e-05,1.1922073099412955e-05
-5.05684147356078e-05,6.079998274799436e-05,-3.5597753594629467e-05,9.387845238961745e-06
-4.4792926928494126e-05,5.696223524864763e-05,-3.407109761610627e-05,7.56055624151486e-06
-3.7204827094683424e-05,4.823540075449273e-05,-3.195085810148157e-05,1.3525119356927462e-05
-2.714093898248393e-05,4.021388303954154e-05,-2.4120270609273575e-05,3.0277689802460372e-05
-1.779263220669236e-05,2.8802140150219202e-05,-1.4264549463405274e-05,4.69159240310546e-05
-1.763276850397233e-05,4.665388132707449e-06,-1.1161021575389896e-05,4.7363628254970536e-05
-2.6565547159407288e-05,-2.8169250072096474e-05,-1.1457743312348612e-05,3.1517793104285374e-05
-3.462502354523167e-05,-4.530452497419901e-05,-1.3461735761666205e-06,1.613213862583507e-05
-4.258559783920646e-05,-3.44964319083374e-05,1.464358592784265e-05,9.95940627035452e-06
-5.0668342737481e-05,-9.719647096062545e-06,1.908883496071212e-05,8.897079169400968e-06
-4.9410566134611145e-05,8.379323844565079e-06,1.4029984413355123e-05,6.573421615030384e-06
-4.056688703713007e-05,1.7453390682931058e-05,5.741807399317622e-06,5.5843770496721845e-06
-3.281137105659582e-05,4.3104100768687204e-05,-9.639408744988032e-06,1.4427932001126464e-05
-3.0353206966537982e-05,7.401179027510807e-05,-2.5356803234899417e-05,2.7701358703779988e-05
-4.007267489214428e-05,8.816693298285827e-05,-3.3880180126288906e-05,3.5242588637629524e-05
-5.3538318752544e-05,9.156947635347024e-05,-3.498797013889998e-05,4.039026680402458e-05
-5.634577610180713e-05,8.210687519749627e-05,-2.640053025970701e-05,4.7871231799945235e-05
-5.250019967206754e-05,7.296571129700169e-05,-1.8590380932437256e-05,5.569273344008252e-05
-5.103110379423015e-05,6.61864469293505e-05,-1.7522346752230078e-05,5.8408571931067854e-05
-5.003623300581239e-05,6.296735955402255e-05,-2.4066761397989467e-05,5.702243288396858e-05
-4.474797242437489e-05,7.166978321038187e-05,-3.440007276367396e-05,5.2719784434884787e-05
-4.139085649512708e-05,8.893466292647645e-05,-4.530641308519989e-05,4.976820491719991e-05
-4.648464891943149e-05,0.00010367368668084964,-5.749064439442009e-05,5.1255068683531135e-05
-5.4549815104110166e-05,0.00010840621689567342,-6.541828042827547e-05,5.50704135093838e-05
-5.951438652118668e-05,0.00010573292092885822,-6.250072328839451e-05,5.653762127622031e-05
-6.200325879035518e-05,9.718543878989294e-05,-5.0809812819352373e-05,5.232052717474289e-05
-6.474549445556477e-05,7.837130397092551e-05,-3.91778266930487e-05,4.4929776777280495e-05
-6.684331310680136e-05,4.6165579988155514e-05,-3.5312899854034185e-05,3.68892251572106e-05
-6.500025483546779e-05,5.0288513193663675e-06,-3.868077328661457e-05,3.05766225210391e-05
-6.306618161033839e-05,-2.93758675979916e-05,-4.0368391637457535e-05,2.491970735718496e-05
-6.658089841948822e-05,-3.317375740152784e-05,-3.835758616332896e-05,2.3200349460239522e-05
-7.205989822978154e-05,-1.4609151548938826e-05,-3.422026929911226e-05,2.4677188775967807e-05
-7.194692443590611e-05,-3.6213243674865225e-06,-2.9815037123626098e-05,2.401444362476468e-05
-6.535609281854704e-05,-7.291635029105237e-06,-2.9075688871671446e-05,1.966752461157739e-05
-5.9991860325681046e-05,-1.6014933862606995e-05,-3.3875363442348316e-05,1.501016322436044e-05
-6.137855962151662e-05,-2.4925022444222122e-05,-3.711312456289306e-05,1.2960135791217908e-05
-5.9775618865387514e-05,-2.841099922079593e-05,-3.466538692009635e-05,1.4421724699786864e-05
-5.667176083079539e-05,-2.782072260743007e-05,-3.100354297203012e-05,1.579510535520967e-05
-5.8962283219443634e-05,-2.5405481210327707e-05,-2.7659189072437584e-05,1.2326600881351624e-05
-6.062783722882159e-05,-2.440693788230419e-05,-2.4788379960227758e-05,8.393157258979045e-06
-5.865650746272877e-05,-1.989094198506791e-05,-2.6262025130563416e-05,1.1701004950737115e-05
-5.875359784113243e-05,-3.992144229414407e-06,-2.9078082661726512e-05,1.820849320210982e-05
-6.574185681529343e-05,1.706442708382383e-05,-2.8684045901172794e-05,1.8401096895104274e-05
-6.846716132713482e-05,3.6362682294566184e-05,-2.5743767764652148e-05,1.4986306268838234e-05
-6.337405648082495e-05,5.587393025052734e-05,-2.395910632913001e-05,1.4917241969669703e-05
-5.908283492317423e-05,6.23259402345866e-05,-2.454585410305299e-05,1.604805947863497e-05
-5.9557623899308965e-05,4.196687586954795e-05,-2.4903596568037756e-05,1.3717299225390889e-05
-5.8911169617203996e-05,1.6997479178826325e-05,-2.3953460186021402e-05,1.0220067451882642e-05
-5.277897071209736e-05,3.5461343941278756e-06,-2.219076850451529e-05,1.1583621017052792e-05
-4.3223695683991536e-05,-2.472950427545584e-06,-2.0121269699302502e-05,1.5514646293013357e-05
-3.271447349106893e-05,-5.044870249548694e-06,-2.0568681065924466e-05,1.8676691979635507e-05
-2.3306118237087503e-05,-6.523430784000084e-06,-2.1438296244014055e-05,1.966862146218773e-05
-2.1518888388527557e-05,-1.1544892913661897e-05,-2.0338769900263287e-05,2.0182500520604663e-05
-2.8076103262719698e-05,-1.880880881799385e-05,-1.7945638319361024e-05,2.1177716917009093e-05
-3.4639891964616254e-05,-1.9235727449995466e-05,-1.8111053577740677e-05,1.9838927983073518e-05
-3.8562353438464925e-05,-7.818365702405572e-06,-2.106942338286899e-05,1.8267575796926394e-05
-4.2187250073766336e-05,1.609267565072514e-05,-2.3687887733103707e-05,1.8541399185778573e-05
-4.391532274894416e-05,4.161011383985169e-05,-2.4971755919978023e-05,1.794543641153723e-05
-3.8633868825854734e-05,4.730651926365681e-05,-2.6198091291007586e-05,1.627910023671575e-05
-3.121812187600881e-05,3.259516597609036e-05,-2.736139686021488e-05,1.7120653865276836e-05
-2.8345379178063013e-05,2.5732537324074656e-05,-2.4704775569261983e-05,1.8492602976039052e-05
-2.8347618354018778e-05,3.8705904444213957e-05,-2.0259403754607774e-05,1.9270220946054906e-05
-3.129554897896014e-05,5.414669794845395e-05,-1.707807859929744e-05,1.954617619048804e-05
-4.0974013245431706e-05,6.554025458171964e-05,-1.6522732039447874e-05,1.8808923414326273e-05
-4.743960016639903e-05,8.629349758848548e-05,-1.6725804016459733e-05,2.0105906514800154e-05
-4.787166108144447e-05,0.00012368943134788424,-1.715203507046681e-05,2.8903303245897405e-05
-5.41430817975197e-05,0.00015263409295585006,-1.6803280232124962e-05,3.2431100407848135e-05
-6.0808062698924914e-05,0.00015851896023377776,-1.5112823348317761e-05,3.060674498556182e-05
-6.404817395377904e-05,0.00015507837815675884,-1.3224052963778377e-05,3.088390803895891e-05
-6.846096948720515e-05,0.00014364979870151728,-1.1571023605938535e-05,2.7235424568061717e-05
-7.611660112161189e-05,0.00012133365089539438,-1.2352401427051518e-05,2.51242054218892e-05
-8.624822658021003e-05,8.516573143424466e-05,-1.856456947280094e-05,2.3921518732095137e-05
-8.768664702074602e-05,4.849115066463128e-05,-2.298441540915519e-05,1.9582774257287383e-05
-7.753127283649519e-05,2.6253554096911103e-05,-2.4660312192281708e-05,1.6901507478905842e-05
-6.0865640989504755e-05,4.382683073345106e-06,-2.7095198674942367e-05,1.9156957932864316e-05
-5.0233109504915774e-05,-1.975959457922727e-05,-2.977136682602577e-05,2.1288271454977803e-05
-5.499245526152663e-05,-2.335104909434449e-05,-3.185057357768528e-05,2.1456593458424322e-05
-6.741852848790586e-05,-6.903068424435332e-06,-3.3224197977688164e-05,1.8421900676912628e-05
-7.322905003093183e-05,1.0092571756104007e-05,-3.378733526915312e-05,1.5220795830828138e-05
-7.31066320440732e-05,2.074441363220103e-05,-3.189021299476735e-05,1.5731337043689564e-05
-7.479859050363302e-05,2.784358548524324e-05,-2.703722202568315e-05,1.7402635421603918e-05
-7.262398867169395e-05,3.009108877449762e-05,-2.0965699150110595e-05,1.9524082745192572e-05
-6.447215127991512e-05,2.4863777071004733e-05,-1.671063364483416e-05,2.1628313334076665e-05
-5.8946672652382404e-05,2.028705239354167e-05,-1.3517946172214579e-05,2.3604157831869088e-05
-5.594427420874126e-05,1.8960501620313153e-05,-1.1903680388059001e-05,2.5616151106078178e-05
-4.974080002284609e-05,1.1662474207696505e-05,-1.3437538655125536e-05,2.762079020612873e-05
-4.2670297261793166e-05,-7.930936590128113e-06,-1.596669062564615e-05,2.853480509656947e-05
-3.790729169850238e-05,-2.796368789859116e-05,-1.5991161490092054e-05,2.828788637998514e-05
-3.469262446742505e-05,-3.219720383640379e-05,-1.6107969713630155e-05,2.926867273345124e-05
-3.1525760277872905e-05,-1.6322064766427502e-05,-1.5128674931474961e-05,3.090120299020782e-05
-3.100034155067988e-05,9.536930519971065e-06,-1.356741449853871e-05,2.86453177977819e-05
-3.1931725970935076e-05,2.8755630410159938e-05,-1.5202261238300707e-05,2.6791398340719752e-05
-3.434778409427963e-05,3.458414357737638e-05,-1.9083301594946533e-05,2.6603358492138796e-05
-3.822191138169728e-05,3.686641503009014e-05,-2.467699050612282e-05,2.8168249627924524e-05
-3.837315671262331e-05,3.7046447687316686e-05,-2.7818650778499432e-05,3.354838918312453e-05
-3.2276864658342674e-05,3.437107807258144e-05,-2.5142269805655815e-05,3.9403432310791686e-05
-2.3660524675506167e-05,2.6386160243419e-05,-2.013044104387518e-05,4.186616570223123e-05
-2.2772095690015703e-05,8.884618182491977e-06,-1.6923335351748392e-05,3.647695848485455e-05
-3.3782871469156817e-05,1.1418590020184638e-06,-1.4570146959158592e-05,2.680026227608323e-05
-4.6473625843646005e-05,2.1564213966485113e-05,-1.335057368123671e-05,2.2507183530251496e-05
-5.4360592912416905e-05,5.979426350677386e-05,-1.611667357792612e-05,2.4855498850229196e-05
-5.807581328554079e-05,8.16563333501108e-05,-1.9176117348251864e-05,2.627452340675518e-05
-6.338006642181426e-05,7.313925743801519e-05,-2.30401310545858e-05,2.1707694031647407e-05
-6.933830445632339e-05,5.129461351316422e-05,-2.8038284654030576e-05,1.2118462109356187e-05
-6.827290781075135e-05,4.288082345738076e-05,-3.1056297302711755e-05,-1.5620644262526184e-06
-6.0878213844262064e-05,5.660174792865291e-05,-3.2082400139188394e-05,-1.482501011196291e-05
-5.466555376187898e-05,8.523254655301571e-05,-3.1009363738121465e-05,-1.738632272463292e-05
-4.847100717597641e-05,0.00011790374264819548,-2.8199236112413928e-05,-6.733231202815659e-06
-3.880360964103602e-05,0.00013958437193650752,-2.6456747946213e-05,1.262840123672504e-05
-3.0298979254439473e-05,0.0001386700023431331,-2.6473418984096497e-05,3.3560125302756205e-05
-2.7858435714733787e-05,0.00011522164277266711,-2.4316206690855324e-05,4.802248804480769e-05
-2.7909934942726977e-05,8.069266914390028e-05,-2.0129135009483434e-05,5.084181611891836e-05
-2.734789995884057e-05,4.465053280000575e-05,-1.7977330571739003e-05,4.692742004408501e-05
-2.9881472073611803e-05,9.518504157313146e-06,-1.9299906853120774e-05,4.375802382128313e-05
-3.3605621865717694e-05,-2.7431564376456663e-05,-2.3640024664928205e-05,4.081265797140077e-05
-3.385125455679372e-05,-6.433681846829131e-05,-3.058178481296636e-05,3.1846455385675654e-05
-3.210707291145809e-05,-8.53711535455659e-05,-3.6734763853019103e-05,2.0683091861428693e-05
-3.389024641364813e-05,-8.211907697841525e-05,-3.784607906709425e-05,1.4506490515486803e-05
-3.581368218874559e-05,-7.235637167468667e-05,-3.545849904185161e-05,1.4503027159662452e-05
-3.9445676520699635e-05,-5.9854763094335794e-05,-3.569166801753454e-05,2.0610834326362237e-05
-4.496626206673682e-05,-3.105518771917559e-05,-3.5539338568923995e-05,2.792765008052811e-05
-5.225924542173743e-05,1.908637204905972e-05,-3.666237535071559e-05,3.457654020166956e-05
-6.200030475156382e-05,7.242673746077344e-05,-4.168057057540864e-05,3.717250001500361e-05
-6.547140219481662e-05,9.860660065896809e-05,-4.169386374996975e-05,3.6166991776553914e-05
-6.694220792269334e-05,9.574784053256735e-05,-3.616249523474835e-05,3.5616143577499315e-05
-6.983715138630942e-05,8.834025356918573e-05,-3.048096004931722e-05,3.5836852475767955e-05
-6.844783638371155e-05,8.654961129650474e-05,-2.6870102374232374e-05,3.861162986140698e-05
-6.650474824709818e-05,7.555490446975455e-05,-2.5729865228640847e-05,4.1465042158961296e-05
-6.370284972945228e-05,4.5430788304656744e-05,-2.917390884249471e-05,3.863982783514075e-05
-6.100672544562258e-05,9.029154171003029e-06,-3.7509384128497913e-05,3.451298107393086e-05
-6.0098300309618935e-05,-1.3336592928681057e-05,-4.5612407120643184e-05,3.3986794733209535e-05
-5.9733487432822585e-05,-1.452854212402599e-05,-4.832111517316662e-05,3.440918953856453e-05
-5.7518191169947386e-05,-3.894346264132764e-06,-4.5317141484702006e-05,3.2644304155837744e-05
-5.2971816330682486e-05,6.065502475394169e-06,-3.866566112264991e-05,3.027275306521915e-05
-4.981291203876026e-05,1.2611643796844874e-05,-3.504202322801575e-05,2.8597807613550685e-05
-4.954442920279689e-05,1.5955405615386553e-05,-3.5916011256631464e-05,2.5929888579412363e-05
-4.865583832724951e-05,1.6030349797802046e-05,-3.5430923162493855e-05,2.332554868189618e-05
-4.4817268644692376e-05,1.596422771399375e-05,-3.3141597668873146e-05,2.214919550169725e-05
-4.3691372411558405e-05,1.737450838845689e-05,-3.257816206314601e-05,2.1493027816177346e-05
-4.819400419364683e-05,1.6698882973287255e-05,-3.2870066206669435e-05,2.0525820218608715e-05
-5.0359587476123124e-05,1.666635216679424e-05,-3.215851393179037e-05,2.2268910470302217e-05
-4.660641570808366e-05,2.058184691122733e-05,-3.0851413612253964e-05,2.2651696781395003e-05
-4.731233275379054e-05,2.4647291866131127e-05,-3.0515471735270694e-05,1.6447056623292156e-05
-5.355337998480536e-05,3.018285678990651e-05,-3.378798282938078e-05,9.29016459849663e-06
-5.413782855612226e-05,3.7905843782937154e-05,-3.3409080060664564e-05,4.391341462905984e-06
-4.7316269046859816e-05,4.0096758311847225e-05,-2.805070653266739e-05,4.123360668017995e-06
-4.0484235796611756e-05,3.8263387978076935e-05,-2.551443139964249e-05,9.870303074421827e-06
-3.317754089948721e-05,3.798532270593569e-05,-2.3505441276938654e-05,1.545976920169778e-05
-2.6783673092722893e-05,3.955197098548524e-05,-1.6787429558462463e-05,1.7429252693546005e-05
-2.511380080250092e-05,3.9142934838309884e-05,-1.067435550794471e-05,1.1837576494144741e-05
-2.58121253864374e-05,3.3915905078174546e-05,-1.0738973287516274e-05,6.646929705311777e-06
-2.874600795621518e-05,3.2411349820904434e-05,-1.4682406799693126e-05,5.855796189280227e-06
-3.257719799876213e-05,3.976530933869071e-05,-1.554543268866837e-05,3.7115664781595115e-06
-3.385454328963533e-05,4.588863885146566e-05,-1.1289706890238449e-05,1.183802169180126e-06
-3.391114296391606e-05,4.2189025407424197e-05,-1.1296798220428172e-05,-4.657655665596394e-07
-3.003013989655301e-05,3.0063423764659092e-05,-1.713108031253796e-05,2.8781903438357404e-06
-2.424584272375796e-05,1.4881206880090758e-05,-2.2199372324394062e-05,7.457869742211187e-06
-2.3580276319989935e-05,9.358939678349998e-06,-2.5699258912936784e-05,9.297799806518015e-06
-3.0049086490180343e-05,1.5266103218891658e-05,-2.620089435367845e-05,8.323336260218639e-06
-3.7021956813987345e-05,2.1495983673958108e-05,-2.034131102846004e-05,6.1427863329299726e-06
-4.062071820953861e-05,1.9191307728760876e-05,-1.0938767445622943e-05,-5.614692213384842e-07
-4.309383439249359e-05,1.225207142852014e-05,-6.5904328039323445e-06,-9.969769052986521e-06
-4.4446504034567624e-05,1.632510816307331e-06,-9.809260518522933e-06,-1.2771072761097457e-05
-4.52123349532485e-05,-1.6077185136964545e-05,-1.2767372936650645e-05,-5.974600753688719e-06
-4.9371301429346204e-05,-2.890039286285173e-05,-1.123618221754441e-05,6.171850372993504e-07
-5.785060056950897e-05,-2.0402867448865436e-05,-1.1922166777367238e-05,-4.34971525464789e-06
-6.583241338375956e-05,6.212856987986015e-06,-2.0015811969642527e-05,-1.3551779375120532e-05
-7.25152567611076e-05,3.44369764206931e-05,-2.953850525955204e-05,-1.0126484994543716e-05
-7.44596982258372e-05,5.368747952161357e-05,-3.1194660550681874e-05,1.0918529369519092e-05
-6.680934893665835e-05,5.862404213985428e-05,-2.4725388357182965e-05,3.409804048715159e-05
-5.775623503723182e-05,5.9709633205784485e-05,-2.1041123545728624e-05,5.230938404565677e-05
-5.354091990739107e-05,7.89846817497164e-05,-2.5203555196640082e-05,6.775761721655726e-05
-4.6294171625049785e-05,0.0001145843998529017,-2.735764064709656e-05,7.777746941428632e-05
-3.9805661799618974e-05,0.0001358922163490206,-2.6427334887557663e-05,7.670930790482089e-05
-4.030804120702669e-05,0.0001331965031567961,-2.9181250283727422e-05,6.0522917920025066e-05
-4.060668288730085e-05,0.00011737077875295654,-3.371985076228157e-05,4.3124877265654504e-05
-3.763321728911251e-05,9.447620686842129e-05,-3.956234286306426e-05,3.301211108919233e-05
-4.022723442176357e-05,6.212533480720595e-05,-4.1558636439731345e-05,3.0288385460153222e-05
-4.811212420463562e-05,3.121031477348879e-05,-3.830308196484111e-05,3.1859064620221034e-05
-4.871407872997224e-05,2.1631689378409646e-05,-3.730351818376221e-05,3.289437518105842e-05
-4.096844349987805e-05,3.0639846954727545e-05,-3.6847668525297195e-05,3.226502303732559e-05
-3.783173451665789e-05,4.209043618175201e-05,-3.566647501429543e-05,2.9373160941759124e-05
-4.518438800005242e-05,4.296490078559145e-05,-3.3828608138719574e-05,3.0448274628724903e-05
-5.424832124845125e-05,3.530822868924588e-05,-3.22228588629514e-05,3.426129842409864e-05
-5.413670442067087e-05,3.28959540638607e-05,-3.158373510814272e-05,3.8762384065194055e-05
-5.006346691516228e-05,4.6160374040482566e-05,-3.0816510843578726e-05,4.040621570311487e-05
-5.159905776963569e-05,6.60045916447416e-05,-2.9795774025842547e-05,3.889124491252005e-05
-5.796643381472677e-05,7.517102494603023e-05,-2.7783347832155414e-05,3.6463166907196864e-05
-6.236933404579759e-05,6.93948459229432e-05,-2.71239950961899e-05,3.591853965190239e-05
-6.213135202415287e-05,5.086857345304452e-05,-2.8181520974612795e-05,3.3134056138806045e-05
-6.009839125908911e-05,1.8038270354736596e-05,-2.9015345717198215e-05,2.611355193948839e-05
-5.7600689615355805e-05,-1.884898665593937e-05,-2.9490085580619052e-05,2.129984386556316e-05
-5.642976611852646e-05,-3.0999704904388636e-05,-3.0099054129095748e-05,2.1575506252702326e-05
-5.653550033457577e-05,-7.6027613431506325e-06,-2.940296872111503e-05,2.217328619735781e-05
-5.780021456303075e-05,2.9449298381223343e-05,-2.8185286282678135e-05,1.8910803191829473e-05
-5.960616181255318e-05,5.4088770411908627e-05,-2.8392543754307553e-05,1.881940806924831e-05
-5.7501518313074484e-05,5.774710371042602e-05,-2.6616244213073514e-05,2.706564191612415e-05
-5.509157927008346e-05,4.925893517793156e-05,-2.176117050112225e-05,3.618092887336388e-05
-5.72128155909013e-05,3.740794272744097e-05,-1.9140632502967492e-05,3.584473961382173e-05
-6.15390672464855e-05,2.6504449124331586e-05,-1.8681677829590626e-05,3.15439174300991e-05
-6.28898196737282e-05,2.2475727746495977e-05,-1.7023970940499566e-05,2.8125190510763787e-05
-5.948500620434061e-05,2.767700243566651e-05,-1.9457580492598936e-05,2.6500138119445182e-05
-5.768915070802905e-05,3.368084435351193e-05,-2.5415847630938515e-05,3.0399065508390777e-05
-5.698529275832698e-05,2.5401663151569664e-05,-2.841037348844111e-05,3.4940956538775936e-05
-5.6637894886080176e-05,4.435718892636942e-06,-2.9027652999502607e-05,3.163783549098298e-05
-5.506122033693828e-05,5.063259322923841e-07,-2.703613427001983e-05,2.4030239728745073e-05
-5.4189782531466335e-05,2.4139359084074385e-05,-2.3374197553494014e-05,1.68834794749273e-05
-5.228022564551793e-05,4.4671502109849826e-05,-1.9033772332477383e-05,1.1768558579206001e-05
-4.9670790758682415e-05,4.86035060021095e-05,-1.7900551029015332e-05,1.0924580237769987e-05
-4.684853047365323e-05,4.058272315887734e-05,-2.0467779904720373e-05,1.3790638149657752e-05
-4.4713531679008156e-05,2.5360881409142166e-05,-2.3019727450446226e-05,1.6479369151056744e-05
-4.5726548705715686e-05,1.7981586779569625e-06,-2.350887552893255e-05,1.8408698451821692e-05
-4.7572742914780974e-05,-3.251417001592927e-05,-2.174605651816819e-05,2.0158589904895052e-05
-5.10657555423677e-05,-6.696538912365213e-05,-2.033721648331266e-05,2.180825686082244e-05
-5.457293082145043e-05,-8.541755232727155e-05,-2.1157258743187413e-05,2.2633485059486702e-05
-5.597293784376234e-05,-7.788270886521786e-05,-2.4167475203284994e-05,2.2688049284624867e-05
-5.214092379901558e-05,-5.1015285862376913e-05,-2.681816476979293e-05,2.4290602596011013e-05
-4.7729768994031474e-05,-1.738845276122447e-05,-2.8048772946931422e-05,2.892486190830823e-05
-4.8567544581601396e-05,1.4521543562295847e-05,-2.9621432986459695e-05,3.228350033168681e-05
-5.533179864869453e-05,4.741735028801486e-05,-3.104397910647094e-05,3.1590781873092055e-05
-6.31585789960809e-05,8.593965321779251e-05,-2.914495053119026e-05,2.9792996429023333e-05
-6.882530578877777e-05,0.00012374315701890737,-2.64183763647452e-05,2.644473897817079e-05
-6.98565854690969e-05,0.00013565854169428349,-2.535479870857671e-05,2.0888621293124743e-05
-6.522648618556559e-05,0.0001117947613238357,-2.492674502718728e-05,1.6112469893414527e-05
-5.991318903397769e-05,8.577734115533531e-05,-2.49811328103533e-05,1.791559043340385e-05
-6.183810910442844e-05,8.1968231825158e-05,-2.6501540560275316e-05,2.251887235615868e-05
-7.012022251728922e-05,8.051071199588478e-05,-2.7488307750900276e-05,2.381888589297887e-05
-7.892210851423442e-05,6.688907160423696e-05,-2.7247970137977973e-05,2.4461758584948257e-05
-7.666489545954391e-05,4.4725453335558996e-05,-2.3986276573850773e-05,2.3691954993410036e-05
-6.129764369688928e-05,2.205040982516948e-05,-2.1702238882426172e-05,1.8349235688219778e-05
-4.6183380618458614e-05,3.8480916373373475e-06,-2.6233416065224446e-05,1.240983146999497e-05
-3.634604945546016e-05,7.439720093316282e-07,-3.246143023716286e-05,1.2362378583929967e-05
-3.3959051506826654e-05,2.5472671040915884e-05,-3.209488568245433e-05,1.7636783013585955e-05
-4.172986155026592e-05,5.432060788734816e-05,-2.7551013772608712e-05,2.226657852588687e-05
-5.798719939775765e-05,6.590763223357499e-05,-2.3823700757930055e-05,2.408779619145207e-05
-7.358408038271591e-05,7.102049130480736e-05,-2.0129711629124358e-05,2.0300412870710716e-05
-8.554712258046493e-05,8.465332939522341e-05,-2.0359006157377735e-05,1.0938674677163363e-05
-8.946080197347328e-05,8.928208990255371e-05,-2.4487648261128925e-05,6.512896561616799e-06
-8.261031325673684e-05,6.883990863570943e-05,-3.221271981601603e-05,9.207708899339195e-06
-6.962108454899862e-05,3.540387479006313e-05,-3.673259561765008e-05,1.2615349078259896e-05
-5.590931687038392e-05,7.725196155661251e-06,-3.2322121114702895e-05,1.4754631592950318e-05
-4.613219789462164e-05,1.7261216953556868e-06,-2.5253588319174014e-05,1.7683809346635826e-05
-4.0295199141837656e-05,1.0973496500810143e-05,-2.068676258204505e-05,2.0010547814308666e-05
-3.851326255244203e-05,1.854470610851422e-05,-2.0094848878216e-05,1.8779915990307927e-05
-3.930077946279198e-05,1.778909245331306e-05,-2.3120584955904633e-05,1.8368727978668176e-05
-4.0636085032019764e-05,1.6582795069552958e-05,-2.761196628853213e-05,2.1136856958037242e-05
-4.3397434637881815e-05,1.8169779650634155e-05,-3.059064692934044e-05,2.339924503758084e-05
-4.6477802243316546e-05,1.845419865276199e-05,-3.0777460779063404e-05,2.3927916117827408e-05
-4.834283026866615e-05,1.5534738849964924e-05,-2.6034858819912188e-05,2.4676941393408924e-05
-4.899955092696473e-05,6.7915520958194975e-06,-1.8996272046933882e-05,2.510852755222004e-05
-4.488515332923271e-05,-9.177263564197347e-06,-1.5548359442618676e-05,2.5075223675230518e-05
-4.1566217987565324e-05,-1.9364271793165244e-05,-1.7213456885656342e-05,2.4049451894825324e-05
-4.4003973016515374e-05,-1.1973103937634733e-05,-1.787332621461246e-05,2.2700400222674944e-05
-4.6632827434223145e-05,8.443716978945304e-06,-1.6448042515548877e-05,2.062660496449098e-05
-4.793467451236211e-05,3.3929365599760786e-05,-1.6760010112193413e-05,1.972368590941187e-05
-5.0361937610432506e-05,5.5984950449783355e-05,-2.111528374371119e-05,2.10273119591875e-05
-5.2074508857913315e-05,6.497882714029402e-05,-2.9880748115829192e-05,2.595039586594794e-05
-5.354736276785843e-05,6.709312583552673e-05,-3.592884604586288e-05,3.034061228390783e-05
-5.4829306463943794e-05,6.694367039017379e-05,-3.3667802199488506e-05,3.1477287848247215e-05
-5.260185935185291e-05,5.976751708658412e-05,-3.085242133238353e-05,3.282438046880998e-05
-4.88959631184116e-05,5.4538657423108816e-05,-3.02115277008852e-05,2.907542511820793e-05
-4.5875771320424974e-05,5.259316822048277e-05,-2.543686241551768e-05,2.206014141847845e-05
-4.599297608365305e-05,4.622139749699272e-05,-2.244294955744408e-05,2.0025299818371423e-05
-4.494582026381977e-05,2.897627382481005e-05,-2.384450999670662e-05,2.5733737857080996e-05
-4.03909471060615e-05,1.129374959418783e-05,-2.798618152155541e-05,3.0025219530216418e-05
-4.020771666546352e-05,8.93397464096779e-06,-3.211072544218041e-05,2.8265723813092336e-05
-4.3135183659614995e-05,2.7960502848145552e-05,-3.529445166350342e-05,2.7203419449506328e-05
-4.0510407416149974e-05,5.9624871937558055e-05,-3.661931987153366e-05,3.1065967050381005e-05
-3.671280137496069e-05,8.465792052447796e-05,-3.5661287256516516e-05,3.519109304761514e-05
-3.7558780604740605e-05,8.736848394619301e-05,-3.4908669476863e-05,3.326958540128544e-05
-3.912316606147215e-05,6.635738827753812e-05,-3.4157543268520385e-05,2.8770373319275677e-05
-3.547640881151892e-05,4.3658361391862854e-05,-3.118245876976289e-05,2.8432317776605487e-05
-3.027597449545283e-05,4.441671626409516e-05,-2.7905296519747935e-05,3.196165198460221e-05
-2.991173096233979e-05,5.7116903917631134e-05,-2.5692130293464288e-05,3.3913518564077094e-05
-3.263364123995416e-05,5.193591277929954e-05,-2.072322604362853e-05,3.070934326387942e-05
-3.6322053347248584e-05,3.076508073718287e-05,-1.6433245036751032e-05,2.3905749912955798e-05
-4.030591298942454e-05,6.492611646535806e-06,-1.634577347431332e-05,2.002837572945282e-05
-4.0469625673722476e-05,-1.652930222917348e-05,-1.9445755242486484e-05,1.9249227989348583e-05
-3.7269244785420597e-05,-4.133029869990423e-05,-2.1844594812137075e-05,1.80420684046112e-05
-3.286125502199866e-05,-6.685395783279091e-05,-1.8466294932295568e-05,1.893952321552206e-05
-2.9841668947483413e-05,-7.072457083268091e-05,-1.2839878763770685e-05,2.2649595848633908e-05
-3.177514736307785e-05,-3.7857196730328724e-05,-1.1125836863357108e-05,2.828447577485349e-05
-3.285600905655883e-05,7.3508745117578655e-06,-1.3908939763496164e-05,3.1663072149967775e-05
-3.2653573725838214e-05,2.6289853849448264e-05,-1.6538318959646858e-05,2.8428243240341544e-05
-3.383265357115306e-05,2.905184192059096e-05,-1.8433096556691453e-05,2.352614865230862e-05
-3.3947140764212236e-05,2.2493952201330103e-05,-2.2841411919216625e-05,1.9034614524571225e-05
-3.1621402740711346e-05,4.0627099906487274e-07,-2.8479831598815508e-05,1.6649806639179587e-05
-3.26169392792508e-05,-1.3643996680912096e-05,-3.582931822165847e-05,1.7930993635673076e-05
-3.11651783704292e-05,-1.5129323401197325e-05,-3.708847361849621e-05,1.966019772225991e-05
-2.5050412659766153e-05,-1.1603794519032817e-05,-3.425026443437673e-05,1.9544053429854102e-05
-1.71041683643125e-05,-1.209303991345223e-05,-3.324893259559758e-05,1.86420111276675e-05
-1.0005931471823715e-05,-1.2343413800408598e-05,-3.416534309508279e-05,2.0806181055377237e-05
-1.2520123163994867e-05,-5.39599977855687e-06,-3.30149669025559e-05,2.4757726350799203e-05
-2.538489206926897e-05,1.8487675333744846e-05,-2.9343604182940908e-05,2.5855055355350487e-05
-4.2878862586803734e-05,5.530338239623234e-05,-2.7333897378412075e-05,2.24342384171905e-05
-5.760918793384917e-05,8.689754758961499e-05,-2.5819959773798473e-05,1.8432241631671786e-05
-6.53374518151395e-05,9.748630691319704e-05,-2.6108855308848433e-05,1.6299803974106908e-05
-6.407903856597841e-05,8.571025682613254e-05,-2.6430174330016598e-05,1.4621736227127258e-05
-6.184211815707386e-05,6.6461056121625e-05,-2.484674951119814e-05,1.4242585166357458e-05
-6.790900806663558e-05,5.3528958233073354e-05,-2.2688924218527973e-05,1.54752706293948e-05
-8.021297981031239e-05,4.8933958169072866e-05,-2.211558421549853e-05,1.6244013750110753e-05
-8.501676347805187e-05,4.42478121840395e-05,-2.3556965970783494e-05,1.6849106032168493e-05
-7.778295548632741e-05,3.515623029670678e-05,-2.713879985094536e-05,2.1210466002230532e-05
-6.776729424018413e-05,2.683685852389317e-05,-2.74761114269495e-05,2.7654608857119456e-05
-5.961313581792638e-05,2.8344442398520187e-05,-2.498103458492551e-05,2.9631020879605785e-05
-5.426154166343622e-05,3.2057367207016796e-05,-2.2825914129498415e-05,2.7568057703319937e-05
-5.428993245004676e-05,3.537946759024635e-05,-1.9954730305471458e-05,2.474685970810242e-05
-5.5590076954104006e-05,3.791702329181135e-05,-1.8427579561830498e-05,2.464208591845818e-05
-5.739877087762579e-05,4.075881588505581e-05,-1.9113436792395078e-05,2.937751378340181e-05
-6.234053580556065e-05,4.255614840076305e-05,-2.1742001990787685e-05,2.9729695597779937e-05
-6.480159208877012e-05,4.435978189576417e-05,-2.4990207748487592e-05,2.406255225650966e-05
-6.258401117520407e-05,4.4552431063493714e-05,-2.4701887014089152e-05,2.1896479665883817e-05
-6.291064346441999e-05,4.0815786633174866e-05,-2.1318599465303123e-05,2.188153302995488e-05
-6.81586898281239e-05,3.6268815165385604e-05,-1.9237857486587018e-05,2.152218257833738e-05
-6.99635929777287e-05,3.507138171698898e-05,-2.134005626430735e-05,2.1971532987663522e-05
-6.562969065271318e-05,4.031261778436601e-05,-2.453668275848031e-05,2.3304508431465365e-05
-6.078067235648632e-05,4.59488328488078e-05,-2.53788020927459e-05,2.3915321435197257e-05
-5.5749831517459825e-05,4.568886652123183e-05,-2.5305831513833255e-05,2.3361866624327376e-05
-4.777977665071376e-05,4.0911796531872824e-05,-2.6727066142484546e-05,2.2043164790375158e-05
-4.205100776744075e-05,3.525272404658608e-05,-2.737044087552931e-05,2.1058131096651778e-05
-4.2509669583523646e-05,3.5419689083937556e-05,-2.5961770006688312e-05,2.2924905351828784e-05
-4.721853110822849e-05,4.026907481602393e-05,-2.5968831323552877e-05,2.3694499759585597e-05
-5.02012662764173e-05,4.2561896407278255e-05,-2.8520613341243006e-05,2.253387174278032e-05
-4.89205340272747e-05,4.117951903026551e-05,-3.1874449632596225e-05,2.2848245862405747e-05
-4.6858302084729075e-05,3.459971412667073e-05,-3.416501567699015e-05,2.43166050495347e-05
-4.529344732873142e-05,2.5605368136893958e-05,-3.373219078639522e-05,2.4232504074461758e-05
-4.340603845776059e-05,2.3666352717555128e-05,-3.2335945434169844e-05,2.121251600328833e-05
-4.237951725372113e-05,3.174116864101961e-05,-3.1750510970596224e-05,1.8047863704850897e-05
-4.439147232915275e-05,3.84915983886458e-05,-3.018600182258524e-05,1.773721851350274e-05
-4.7116674977587536e-05,3.6367513530422e-05,-2.702612619032152e-05,1.9730166968656704e-05
-4.482356962398626e-05,3.109399040113203e-05,-2.5530902348691598e-05,2.273763129778672e-05
-4.186871956335381e-05,2.8482878406066447e-05,-2.7355690690455958e-05,2.248380405944772e-05
-4.293098390917294e-05,2.8075788577552885e-05,-2.7322575988364406e-05,2.066234446829185e-05
-4.904154411633499e-05,3.366624514455907e-05,-2.7273819796391763e-05,2.2590684238821268e-05
-5.7707329688128084e-05,3.5840719647239894e-05,-2.8936570743098855e-05,2.504880103515461e-05
-6.21452127234079e-05,2.8507920433185063e-05,-2.7566065909923054e-05,2.5906230803229846e-05
-6.325479625957087e-05,1.6971664081211202e-05,-2.141745062544942e-05,2.1785312128486112e-05
-6.0236125136725605e-05,3.1569375096296426e-06,-1.9746881662285887e-05,2.0881616364931688e-05
-5.6001223128987476e-05,-6.246778866625391e-06,-2.501761628082022e-05,2.3843256713007577e-05
-5.6478507758583874e-05,-9.466077244724147e-06,-3.022342389158439e-05,2.1618941900669597e-05
-6.030746953911148e-05,-1.3870708244212437e-05,-2.9512746550608426e-05,2.250692341476679e-05
-5.97846410528291e-05,-1.7330050468444824e-05,-2.62346748058917e-05,2.3428909116773866e-05
-5.549654088099487e-05,-9.837849574978463e-06,-2.421771023364272e-05,1.7129024854511954e-05
-4.968486973666586e-05,3.0591154427384026e-06,-2.2022746634320356e-05,7.90936883277027e-06
-4.382420956972055e-05,1.652422724873759e-05,-2.3595521270181052e-05,5.689959380106302e-06
-4.2351770389359444e-05,2.8686210498563014e-05,-2.373818279011175e-05,1.3498353837348986e-05
-4.192010237602517e-05,3.818986806436442e-05,-1.9128399799228646e-05,2.1713527530664578e-05
-4.0237646317109466e-05,4.26287624577526e-05,-1.5325234926422127e-05,2.453254273859784e-05
-3.719487358466722e-05,3.867069608531892e-05,-1.7088848835555837e-05,2.5121351427515037e-05
-3.431397271924652e-05,3.451344673521817e-05,-2.1194078726693988e-05,2.8850690796389244e-05
-3.785776061704382e-05,3.693042526720092e-05,-2.3535758373327553e-05,3.471412128419615e-05
-4.726054612547159e-05,3.849089262075722e-05,-2.0913081243634224e-05,3.8795307773398235e-05
-5.3058505727676675e-05,2.8928243409609422e-05,-1.7571930584381334e-05,4.013386569567956e-05
-5.409237928688526e-05,2.087783650495112e-05,-1.950753721757792e-05,3.9244230720214546e-05
-5.637543654302135e-05,3.7015062844147906e-05,-2.3937467631185427e-05,3.7575278838630766e-05
-5.721057459595613e-05,7.403259951388463e-05,-2.7757143470807932e-05,3.755879879463464e-05
-4.7698158596176654e-05,0.00010409489914309233,-2.9490651286323555e-05,3.944830677937716e-05
-3.277538780821487e-05,0.00011716192966559902,-2.8084057703381404e-05,4.313871613703668e-05
-2.6923573386739008e-05,0.000123187608551234,-2.481607225490734e-05,4.6965778892626986e-05
-3.038883733097464e-05,0.0001341561583103612,-2.1968364308122545e-05,4.9112102715298533e-05
-3.522996848914772e-05,0.00016003941709641367,-1.9024242646992207e-05,4.8427133151562884e-05
-3.659544017864391e-05,0.0001826524967327714,-1.6810345186968334e-05,4.384087515063584e-05
-3.6907560570398346e-05,0.0001726145128486678,-1.8632332285051234e-05,3.6604556953534484e-05
-4.731847729999572e-05,0.00013196335930842906,-2.358325400564354e-05,3.189438575645909e-05
-6.449049396906048e-05,8.740260818740353e-05,-2.4325729100382887e-05,3.243577157263644e-05
-7.732785161351785e-05,5.203153341426514e-05,-2.216511347796768e-05,3.0524475732818246e-05
-7.956432818900794e-05,2.589397263363935e-05,-2.016904909396544e-05,2.569322350609582e-05
-7.865145744290203e-05,3.960003141401103e-06,-2.2165591872180812e-05,2.24746618187055e-05
-7.820475730113685e-05,-2.146946826542262e-05,-2.8194388505653478e-05,2.1239236957626417e-05
-7.187722076196223e-05,-3.5089953598799184e-05,-3.1412753742188215e-05,2.2090243874117732e-05
-6.498402217403054e-05,-2.9431961593218148e-05,-3.0364821213879623e-05,2.338605554541573e-05
-6.081282117520459e-05,-1.5808198440936394e-05,-2.843718175427057e-05,2.4274788302136585e-05
-5.8784480643225834e-05,-9.37991171667818e-06,-2.767773185041733e-05,2.373837742197793e-05
-5.8213867305312306e-05,-1.251075718755601e-05,-2.805290750984568e-05,2.2035859728930518e-05
-6.083396510803141e-05,-1.302881082665408e-05,-2.5679730242700316e-05,2.2497313693747856e-05
-6.378370017046109e-05,-5.008826519770082e-06,-2.032546399277635e-05,2.4839442630764097e-05
-6.234459578990936e-05,5.9074859564134385e-06,-1.964721923286561e-05,2.403131111350376e-05
-5.496745143318549e-05,1.0683666914701462e-05,-2.298396975675132e-05,1.896697904157918e-05
-4.6869023208273575e-05,8.233978405769449e-06,-2.5754876332939602e-05,1.3053902875981294e-05
-4.859028194914572e-05,4.637337497115368e-06,-2.863689405785408e-05,1.1066024853789713e-05
-5.8447298215469345e-05,8.813366548565682e-06,-3.284457852714695e-05,1.4418437785934657e-05
-6.395208038156852e-05,1.8710521544562653e-05,-3.666459087980911e-05,1.8900665963883512e-05
-6.112512346589938e-05,2.4032364308368415e-05,-3.878578354488127e-05,2.1165840735193342e-05
-5.700971087208018e-05,2.1845786250196397e-05,-3.7796326068928465e-05,2.3276985302800313e-05
-5.442136534838937e-05,1.9113713278784417e-05,-3.404140443308279e-05,2.4180095351766795e-05
-5.1033384806942195e-05,1.8067796190734953e-05,-3.0644288926851004e-05,2.256187508464791e-05
-4.741965312859975e-05,1.822006561269518e-05,-3.0158189474605024e-05,2.1955414922558703e-05
-4.478671689867042e-05,1.8643357179826126e-05,-3.0214270736905746e-05,2.1252364604151808e-05
-4.377617369755171e-05,2.1070953152957372e-05,-2.664398380147759e-05,2.05632095457986e-05
-4.2584852053551e-05,2.371402661083266e-05,-2.2049929611966945e-05,2.2585030819755048e-05
-4.1484006942482665e-05,2.4221040803240612e-05,-2.3345413865172304e-05,2.504598342056852e-05
-4.14651476603467e-05,2.827920798154082e-05,-2.756792127911467e-05,2.5840507078100927e-05
-4.6480130549753085e-05,3.511721297400072e-05,-2.8499774998635985e-05,2.3440537916030735e-05
-5.3643365390598774e-05,3.61183010681998e-05,-2.953337025246583e-05,2.2528245608555153e-05
-5.114484520163387e-05,2.9382439606706612e-05,-2.9288255973369814e-05,2.1856280000065453e-05
-4.547856224235147e-05,2.4287350242957473e-05,-2.9833852750016376e-05,1.9865328795276582e-05
-4.5166685595177114e-05,2.4721013687667437e-05,-3.0396216970984824e-05,1.9547369447536767e-05
-4.899382111034356e-05,2.5165385522996075e-05,-2.555072023824323e-05,1.7667643987806514e-05
-5.444527050713077e-05,2.420163764327299e-05,-2.1169033061596565e-05,1.51419299072586e-05
-6.036422564648092e-05,2.0314533685450442e-05,-2.2231359253055416e-05,1.2829470506403595e-05
-6.29861606284976e-05,1.517210876045283e-05,-2.8158170607639477e-05,1.4310883670987096e-05
-6.259841757128015e-05,1.0458405995450448e-05,-3.2427135010948405e-05,1.784475171007216e-05
-6.3835977925919e-05,9.847329238255043e-06,-3.182549335178919e-05,1.982648973353207e-05
-6.568848039023578e-05,1.0808136721607298e-05,-2.837525971699506e-05,1.8613833162817173e-05
-5.920617695664987e-05,6.082554136810359e-06,-2.571046024968382e-05,1.6707937902538106e-05
-4.475396417547017e-05,-4.504836397245526e-06,-2.529680023144465e-05,1.626886114536319e-05
-3.051782914553769e-05,-1.3708558071812149e-05,-2.772284460661467e-05,1.652062201173976e-05
-1.8204775187768973e-05,-1.6390476957894862e-05,-3.1545361707685515e-05,1.6292506188619882e-05
-6.253559149627108e-06,-1.9193785192328505e-05,-3.4220214729430154e-05,1.609550236025825e-05
1.9387198335607536e-06,-2.8660946554737166e-05,-3.171073331031948e-05,1.9705723389051855e-05
7.27101451047929e-07,-4.107167478650808e-05,-2.30193545576185e-05,2.4482123990310356e-05
-4.4383350541465916e-06,-4.966624692315236e-05,-1.644170879444573e-05,2.6467658244655468e-05
-1.1095399713667575e-05,-5.295779919833876e-05,-1.8489772628527135e-05,2.5876495783450082e-05
-2.5336576072731987e-05,-4.0630460716784e-05,-2.5084824301302433e-05,2.4189688701881096e-05
-3.748578455997631e-05,-4.421920948516345e-06,-2.8944803489139304e-05,2.2769219867768697e-05
-4.048759728902951e-05,4.833811544813216e-05,-2.8718581233988516e-05,2.234444400528446e-05
-4.322302993386984e-05,9.199966007145122e-05,-2.7441346901468933e-05,1.9495095330057666e-05
-4.5677814341615885e-05,0.00011642348545137793,-2.7886146199307404e-05,1.4812099834671244e-05
-4.486679608817212e-05,0.00013008328096475452,-2.8398524591466412e-05,1.383468224958051e-05
-3.9926097088027745e-05,0.00013655461953021586,-2.755848254309967e-05,1.6197420336538926e-05
-4.112409078516066e-05,0.00013033926370553672,-2.5962788640754297e-05,1.5726438505225815e-05
-4.654653821489774e-05,0.0001112231839215383,-2.711637716856785e-05,1.3598169061879162e-05
-5.175110709387809e-05,8.770458225626498e-05,-3.0443452487816103e-05,1.417982730345102e-05
-5.684102143277414e-05,6.486776692327112e-05,-3.1528314138995484e-05,1.674661871220451e-05
-6.190902058733627e-05,5.1287555834278464e-05,-2.8490057957242243e-05,1.7683916667010635e-05
-6.444289465434849e-05,4.7906007239362225e-05,-2.3883048925199546e-05,1.9408824300626293e-05
-6.001400834065862e-05,4.8461119149578735e-05,-1.859836083895061e-05,2.5001701942528598e-05
-5.289233013172634e-05,4.9551068514119834e-05,-1.621036972210277e-05,2.744674202403985e-05
-4.744533362099901e-05,5.2961324399802834e-05,-1.6675268852850422e-05,2.1596686565317214e-05
-4.90106685901992e-05,5.462612898554653e-05,-1.8038499547401443e-05,1.5839454135857522e-05
-5.577979391091503e-05,4.875718877883628e-05,-1.9780676666414365e-05,1.4732926501892507e-05
-6.428976485040039e-05,3.9700145862298086e-05,-2.0695748389698565e-05,1.813598646549508e-05
-6.933090480742976e-05,3.50092668668367e-05,-2.170570587622933e-05,2.4688468329259194e-05
-6.809783371863887e-05,3.727610965142958e-05,-2.381528975092806e-05,2.9395179808489047e-05
-6.280690286075696e-05,4.573136175167747e-05,-2.751349165919237e-05,3.0662940844194964e-05
-6.146067607915029e-05,5.567685730056837e-05,-3.01627933367854e-05,2.9730183086940087e-05
-6.336145452223718e-05,5.9778907598229125e-05,-3.0636922019766644e-05,2.986925028380938e-05
-6.366262095980346e-05,5.565574610955082e-05,-2.7447058528196067e-05,2.9743570848950185e-05
-6.382619176292792e-05,4.7341076424345374e-05,-2.1788366211694665e-05,2.723626676015556e-05
-6.274425686569884e-05,4.2372572352178395e-05,-2.0006398699479178e-05,2.3947653971845284e-05
-5.926088124397211e-05,4.2266819946235046e-05,-2.3508175218012184e-05,2.3470734959119e-05
-5.446112118079327e-05,4.502007141127251e-05,-2.3681377570028417e-05,2.6261343009537086e-05
-5.103973307996057e-05,4.787072248291224e-05,-2.2712065401719883e-05,2.6576215532259084e-05
-5.038120798417367e-05,4.811969120055437e-05,-2.7291895094094798e-05,2.397411117271986e-05
-5.349999264581129e-05,4.159090167377144e-05,-3.46665401593782e-05,2.3718303054920398e-05
-5.4501659178640693e-05,3.2606953027425334e-05,-3.5742836189456284e-05,2.5036282750079408e-05
-5.0486429245211184e-05,2.8142661903984845e-05,-3.1642419344279915e-05,2.5782706870813854e-05
-5.0157028454123065e-05,2.6819701815838926e-05,-2.6811918360181153e-05,2.585312722658273e-05
-5.4658783483318985e-05,2.5976232791435905e-05,-2.3580598281114362e-05,2.486882294761017e-05
-5.8737168728839606e-05,2.555881474108901e-05,-2.3947675799718127e-05,2.3458384021068923e-05
-5.761069405707531e-05,2.6023808459285647e-05,-2.324401430087164e-05,2.3159824195317924e-05
-5.4012529290048406e-05,2.4009663320612162e-05,-2.1739166186307557e-05,2.5292843929491937e-05
-5.123197479406372e-05,2.0700246750493534e-05,-1.943595998454839e-05,2.7908636184292845e-05
-5.086134115117602e-05,1.67058315128088e-05,-2.0748591850860976e-05,2.77104445558507e-05
-5.110410347697325e-05,1.2900892215839121e-05,-2.5328126866952516e-05,2.7554053303902037e-05
-4.853432619711384e-05,1.2045264156768098e-05,-2.9602097129100002e-05,2.720041447901167e-05
-4.575524872052483e-05,1.5066333617141936e-05,-3.3164451451739296e-05,2.7122094252263196e-05
-4.577922300086357e-05,1.7992879293160513e-05,-3.581983401090838e-05,2.8793399906135164e-05
-4.98630506626796e-05,1.746946327330079e-05,-3.661861046566628e-05,2.955651143565774e-05
-5.413362305262126e-05,1.238168897543801e-05,-3.578861287678592e-05,2.82344135484891e-05
-5.555254756473005e-05,8.763914593146183e-06,-3.490693779895082e-05,2.642944673425518e-05
-5.608750507235527e-05,1.3206527910369914e-05,-3.427955016377382e-05,2.734367808443494e-05
-5.991269790683873e-05,2.1050231225672178e-05,-3.0978277209214866e-05,3.0195775252650492e-05
-6.373808719217777e-05,2.590099575172644e-05,-2.5649838789831847e-05,3.168467083014548e-05
-6.210785068105906e-05,2.825175761245191e-05,-2.377973942202516e-05,3.235351323382929e-05
-5.476115984492935e-05,2.8516989914351143e-05,-2.488512109266594e-05,3.424103852012195e-05
-4.605255526257679e-05,2.491792110959068e-05,-2.6866706321015954e-05,3.432723315199837e-05
-4.215235821902752e-05,2.2168620489537716e-05,-2.5175111659336835e-05,3.118024687864818e-05
-4.029738192912191e-05,2.3729147869744338e-05,-1.9070086636929773e-05,3.03601409541443e-05
-3.6071585782337934e-05,2.598019091237802e-05,-1.5859819541219622e-05,3.1268977181753144e-05
-3.1722389394417405e-05,2.729463994910475e-05,-1.8825849110726267e-05,2.993591442645993e-05
-2.936954660981428e-05,3.0022467399248853e-05,-2.1695821487810463e-05,2.8098755137762055e-05
-3.160732740070671e-05,2.87163165921811e-05,-2.1925667169853114e-05,2.7945246984018013e-05
-3.418912092456594e-05,2.8632162866415456e-05,-2.226485958090052e-05,2.865928217943292e-05
-3.341700721648522e-05,3.3697324397508055e-05,-2.3652286472497508e-05,2.7903048248845153e-05
-2.9970246032462455e-05,3.7428337236633524e-05,-2.6536848963587545e-05,2.7892285288544372e-05
-2.8379878131090663e-05,3.6562923924066126e-05,-2.898785714933183e-05,2.9486738640116528e-05
-2.847025461960584e-05,3.413898957660422e-05,-2.507181307009887e-05,2.9491930035874248e-05
-3.062537143705413e-05,3.7894984416197985e-05,-2.1591917175101116e-05,2.971629692183342e-05
-3.615715468185954e-05,4.499460192164406e-05,-2.3115631847758777e-05,3.1613923056283966e-05
-4.213998909108341e-05,4.932834053761326e-05,-2.551091711211484e-05,3.1559666240355e-05
-4.677812466979958e-05,4.904664456262253e-05,-2.588117786217481e-05,2.911222145485226e-05
-4.9488746299175546e-05,4.800718306796625e-05,-2.4730165023356676e-05,2.499004222045187e-05
-5.10888421558775e-05,4.654784424928948e-05,-2.69823576672934e-05,2.4365459466935135e-05
-5.11402431584429e-05,4.545310002868064e-05,-3.0083292585914023e-05,2.6934432753478177e-05
-5.2894261898472905e-05,4.608853123500012e-05,-3.106424264842644e-05,2.9599526897072792e-05
-5.52541168872267e-05,4.509140126174316e-05,-3.0920986318960786e-05,2.95996851491509e-05
-5.457708903122693e-05,4.1842802602332085e-05,-3.0605733627453446e-05,2.8652306355070323e-05
-5.247887747827917e-05,4.1189334297087044e-05,-3.0710310966242105e-05,2.9727365472353995e-05
-5.121592039358802e-05,4.401847763801925e-05,-3.0468521799775772e-05,3.054770058952272e-05
-4.948124478687532e-05,4.2692678107414395e-05,-2.773494088614825e-05,2.6973104468197562e-05
-5.023161429562606e-05,3.4964938095072284e-05,-2.548875636421144e-05,2.06829936360009e-05
-5.070511906524189e-05,2.610185583762359e-05,-2.8437210858101025e-05,1.7938145902007818e-05
-4.990382512914948e-05,1.942520248121582e-05,-3.549554821802303e-05,1.7097527234000154e-05
-4.997851647203788e-05,1.507239448983455e-05,-3.940625538234599e-05,1.8912367522716522e-05
-5.1309194532223046e-05,1.3724617019761354e-05,-3.8219193811528385e-05,2.299297739227768e-05
-5.332770888344385e-05,1.2808151950594038e-05,-3.587238097679801e-05,2.2407446522265673e-05
-5.310933192959055e-05,8.343490662809927e-06,-3.346459925523959e-05,1.850739681685809e-05
-5.154281097929925e-05,3.4615950426086783e-06,-2.815750485751778e-05,1.5268324204953387e-05
-5.0658214604482055e-05,4.644984528567875e-06,-2.3950537070049904e-05,1.2414045158948284e-05
-4.7548197471769527e-05,8.499985597154591e-06,-2.5729319531819783e-05,8.519445145793725e-06
-4.697764234151691e-05,9.242894520866685e-06,-2.614570621517487e-05,5.015693204768468e-06
-5.5227843404281884e-05,9.895822586258873e-06,-2.4410459445789456e-05,6.519236194435507e-06
-5.876693467143923e-05,1.8121896573575214e-05,-2.4679902708157897e-05,9.691709237813484e-06
-5.691419937647879e-05,3.0235594749683514e-05,-2.6420380891067907e-05,1.3664982361660805e-05
-5.669387974194251e-05,3.696706335176714e-05,-2.6899895601673052e-05,1.6073316146503203e-05
-5.768693517893553e-05,4.310809163143858e-05,-2.5162811652990058e-05,1.8505166735849343e-05
-5.6045821111183614e-05,5.069801409263164e-05,-2.3004342438071035e-05,2.0252155081834644e-05
-5.036283255321905e-05,5.188125214772299e-05,-1.9902901840396225e-05,2.0854258764302358e-05
-4.670427006203681e-05,4.895628444501199e-05,-1.778878504410386e-05,2.077413591905497e-05
-4.7337511205114424e-05,4.875967715634033e-05,-1.869853622338269e-05,2.212310027971398e-05
-5.001308454666287e-05,5.1703365897992626e-05,-2.2135393010103144e-05,2.214358937635552e-05
-5.159934880794026e-05,5.280970799503848e-05,-2.5384364562341943e-05,1.8431033822707832e-05
-5.4192609240999445e-05,5.1290182454977185e-05,-2.8054839276592247e-05,1.422897184966132e-05
-5.552261063712649e-05,5.006134233553894e-05,-2.8930035114171915e-05,1.210812661156524e-05
-5.460576358018443e-05,4.8271645937347785e-05,-2.6874951799982227e-05,1.2182291357021313e-05
-5.4002473916625604e-05,4.053882366861217e-05,-2.364482315897476e-05,1.2305442396609578e-05
-5.3224986913846806e-05,2.7508312996360473e-05,-2.0905941710225306e-05,1.2474536561057903e-05
-5.044982390245423e-05,2.0303787096054293e-05,-2.0115330698899925e-05,1.4623610695707612e-05
-4.915297540719621e-05,1.9985918697784655e-05,-2.1924704924458638e-05,1.934404826897662e-05
-5.127620170242153e-05,1.8735643607215025e-05,-2.5660501705715433e-05,2.0116001905989833e-05
-5.174183752387762e-05,1.8183189240517095e-05,-2.6233656171825714e-05,1.718520616122987e-05
-4.903754233964719e-05,1.80174447450554e-05,-2.306857641087845e-05,1.6420435713371262e-05
-4.694582094089128e-05,1.4462917533819564e-05,-2.272133315273095e-05,1.988777694350574e-05
-4.9858364945976064e-05,1.1603834536799695e-05,-2.448210580041632e-05,2.22331473196391e-05
-5.450108801596798e-05,1.0104104148922488e-05,-2.2512831492349505e-05,2.7877487809746526e-05
-5.380775110097602e-05,1.19765245472081e-05,-1.909245656861458e-05,3.158369509037584e-05
-4.879796688328497e-05,1.749821603880264e-05,-1.919969690789003e-05,2.9294318665051833e-05
-5.130556019139476e-05,1.9858487576129846e-05,-2.1441204808070324e-05,2.4368517188122496e-05
-6.437068077502772e-05,2.0596771719283424e-05,-2.2369995349436067e-05,2.0323444914538413e-05
-7.577268843306229e-05,2.609212424431462e-05,-2.5306400857516564e-05,2.056077755696606e-05
-7.770382217131555e-05,3.506255961838178e-05,-2.658276389411185e-05,2.2407090000342578e-05
-7.021646888460964e-05,4.8896246880758554e-05,-2.5289284167229198e-05,2.4348695660592057e-05
-5.73580437048804e-05,6.379085243679583e-05,-2.6545159926172346e-05,2.6648176572052762e-05
-4.8319943743990734e-05,7.31826585251838e-05,-2.5242554329452105e-05,3.0300123398774303e-05
-4.654849908547476e-05,7.683700823690742e-05,-2.4104843760142103e-05,3.136830127914436e-05
-4.786506178788841e-05,7.701379217905924e-05,-2.426432001811918e-05,2.98227332677925e-05
-4.580906170303933e-05,7.47965750633739e-05,-2.230252357549034e-05,2.8716658562188968e-05
-4.276204708730802e-05,7.07307190168649e-05,-2.148114981537219e-05,2.8974613087484613e-05
-4.2698808101704344e-05,6.654794560745358e-05,-2.4710507204872556e-05,2.9678289138246328e-05
-4.2185474740108475e-05,6.195543392095715e-05,-2.9261585950735025e-05,2.987465813930612e-05
-4.4522668758872896e-05,5.727133611799218e-05,-2.9478303986252286e-05,3.093043778790161e-05
-5.346269972505979e-05,5.535814489121549e-05,-2.6692137907957658e-05,3.321707117720507e-05
-6.412121001631021e-05,5.568626875174232e-05,-2.3583723304909654e-05,3.254684997955337e-05
-6.687783752568066e-05,5.1254191930638626e-05,-2.0793046132894233e-05,2.6471179808140732e-05
-6.08107220614329e-05,4.288465788704343e-05,-1.8839458789443597e-05,2.0175195459160022e-05
-5.030379907111637e-05,3.551146437530406e-05,-1.801526377676055e-05,1.924816933751572e-05
-3.5887052945327014e-05,2.6690546292229556e-05,-1.8647551769390702e-05,2.0161973225185648e-05
-2.305382258782629e-05,1.9504486772348173e-05,-2.056607263511978e-05,1.899641392810736e-05
-1.733695899019949e-05,1.930755934154149e-05,-2.185004996135831e-05,2.1401328922365792e-05
-1.5592517229379155e-05,2.456193215039093e-05,-2.2698837710777298e-05,2.8111153369536623e-05
-1.5001543943071738e-05,3.443366222199984e-05,-2.2006746803526767e-05,2.95182726404164e-05
-1.7491838661953807e-05,3.7669309676857665e-05,-1.763757063599769e-05,2.6072035325341858e-05
-2.1365853172028437e-05,2.8068754545529373e-05,-1.530416375317145e-05,2.6208022973150946e-05
-2.4450655473629013e-05,1.2840171621064655e-05,-2.0397963453433476e-05,2.809170473483391e-05
-2.8271364499232732e-05,-5.792529009340797e-06,-2.5543884476064704e-05,2.7400361432228237e-05
-3.3183743653353304e-05,-3.213695890735835e-05,-2.6449952201801352e-05,2.345643224543892e-05
-3.861389996018261e-05,-5.563196100411005e-05,-2.5599149012123235e-05,1.9922836145269684e-05
-4.594512211042456e-05,-6.423454033210874e-05,-2.1265961549943313e-05,2.0692377802333795e-05
-5.0090555305359885e-05,-5.482976484927349e-05,-1.6870699255377986e-05,2.3936157958814874e-05
-4.836916195927188e-05,-3.000122342200484e-05,-1.8219237972516567e-05,2.5721774363773875e-05
-4.481838914216496e-05,-9.02351712284144e-06,-2.303485780430492e-05,2.362240593356546e-05
-4.323901885072701e-05,3.5405355447437614e-06,-2.70225245913025e-05,2.2160762455314398e-05
-4.5575652620755136e-05,1.6901642084121704e-05,-2.8926762752234936e-05,2.2468817405751906e-05
-5.054844223195687e-05,3.1779767596162856e-05,-3.156170350848697e-05,2.2879521566210315e-05
-5.626341953757219e-05,4.463482036953792e-05,-3.563283826224506e-05,2.276849772897549e-05
-5.8259527577320114e-05,5.280842742649838e-05,-3.62350074283313e-05,2.4547452994738705e-05
-5.414522092905827e-05,5.238724406808615e-05,-3.3085507311625406e-05,2.494565887900535e-05
-5.165501352166757e-05,4.6299563109641895e-05,-2.9583718060166575e-05,2.028334347414784e-05
-5.754249286837876e-05,4.406944935908541e-05,-2.8853070034529082e-05,1.5277022612281144e-05
-6.31413931841962e-05,4.856600207858719e-05,-2.8792272132704966e-05,1.382327809551498e-05
-6.114890857134014e-05,5.2559447794919834e-05,-2.853438854799606e-05,1.4035484127816744e-05
-5.765800960944034e-05,5.030984175391495e-05,-2.8984310119994916e-05,1.4280311006586999e-05
-5.78724175284151e-05,4.701576108345762e-05,-2.9880040528951213e-05,1.6330608559655957e-05
-5.70890806557145e-05,4.4712771341437474e-05,-2.7166401196154766e-05,1.85151475307066e-05
-5.272098496789113e-05,4.58658832940273e-05,-2.1048894268460572e-05,2.0895608031423762e-05
-4.986821659258567e-05,5.400126610766165e-05,-1.7963695427170023e-05,2.3315311409533024e-05
-4.831831029150635e-05,5.770776988356374e-05,-1.8680764696910046e-05,2.5460594770265743e-05
-4.1185168811352924e-05,4.996619463781826e-05,-1.9836110368487425e-05,2.7732881790143438e-05
-3.348829341121018e-05,3.815474337898195e-05,-2.3226873963722028e-05,3.056594869121909e-05
-3.384338560863398e-05,3.2075018680188805e-05,-2.462468546582386e-05,3.529424429871142e-05
-3.773410935536958e-05,3.884567558998242e-05,-2.2184538465808146e-05,3.6273504520067945e-05
-3.459925937931985e-05,5.730483462684788e-05,-2.4311217202921398e-05,3.1531941203866154e-05
-3.287947765784338e-05,7.438483589794487e-05,-2.647402106958907e-05,2.7373525881557725e-05
-3.9711128920316696e-05,7.739562715869397e-05,-2.8043912607245147e-05,2.2641956093139015e-05
-4.692021320806816e-05,6.248729187063873e-05,-2.8651225875364617e-05,1.6629177480353974e-05
-5.415792838903144e-05,3.913169712177478e-05,-2.58751715591643e-05,1.4809957974648569e-05
-5.730618431698531e-05,1.342687028227374e-05,-2.4590999601059593e-05,1.5675954273319803e-05
-5.827497079735622e-05,-1.5773744962643832e-05,-2.7242929718340747e-05,1.547707688587252e-05
-5.882659388589673e-05,-3.5732515243580565e-05,-3.236201519030146e-05,1.7870886949822307e-05
-5.6287204643012956e-05,-3.882000964949839e-05,-3.84052109438926e-05,2.290900556545239e-05
-5.150656579644419e-05,-2.9215148970251903e-05,-4.1146064177155495e-05,2.7810168830910698e-05
-4.878354957327247e-05,-2.105765997839626e-05,-3.780712722800672e-05,3.209141505067237e-05
-4.863776484853588e-05,-1.953695755219087e-05,-3.148578616674058e-05,3.6414869100553915e-05
-4.657668978325091e-05,-1.9865716240019538e-05,-2.7124915504828095e-05,3.793092037085444e-05
-4.408254608279094e-05,-2.2563048332813196e-05,-2.5650044335634448e-05,3.7113233702257276e-05
-4.323235771153122e-05,-3.229365756851621e-05,-2.3781794880051166e-05,3.7834164686501026e-05
-4.3370702769607306e-05,-4.3039563024649397e-05,-2.0934478015988134e-05,3.933170955860987e-05
-4.384226485854015e-05,-4.2977520934073254e-05,-2.0390103600220755e-05,3.869875581585802e-05
-4.622221604222432e-05,-3.0275459721451625e-05,-2.176132875320036e-05,3.554153227014467e-05
-4.853547579841688e-05,-7.721062502241693e-06,-2.411531204415951e-05,3.332072083139792e-05
-4.7946097765816376e-05,2.895748730225023e-05,-2.4732724341447465e-05,3.303643097751774e-05
-4.239589179633185e-05,7.263049337780103e-05,-2.3618213162990287e-05,2.9910877856309526e-05
-3.290875247330405e-05,9.378828690387309e-05,-2.3757269445923157e-05,2.2737674953532405e-05
-2.5815939807216637e-05,8.594543032813817e-05,-2.1144593119970523e-05,1.674757913860958e-05
-3.0243239962146617e-05,7.033960719127208e-05,-1.864873593149241e-05,1.618939859326929e-05
-3.951628605136648e-05,5.727855386794545e-05,-1.7166243196697906e-05,1.8683422240428627e-05
-3.921196548617445e-05,4.756532871397212e-05,-1.9837058061966673e-05,2.2489850380225107e-05
-3.627999103628099e-05,5.454974598251283e-05,-2.2767124391975813e-05,2.304354711668566e-05
-3.665722761070356e-05,7.3188915848732e-05,-2.2190777599462308e-05,1.7992946595768444e-05
-3.944012860301882e-05,8.316183084389195e-05,-2.220448550360743e-05,1.59881074068835e-05
-5.061102638137527e-05,7.943598029669374e-05,-2.632315045048017e-05,1.6971758668660186e-05
-6.310251774266362e-05,6.622634828090668e-05,-3.113641287200153e-05,1.5989855455700308e-05
-6.814247171860188e-05,5.3576630307361484e-05,-3.0870527552906424e-05,1.488323960074922e-05
-6.980464240768924e-05,6.067540016374551e-05,-3.102033952018246e-05,1.7103518985095434e-05
-7.555928459623829e-05,8.659373270347714e-05,-3.291971734142862e-05,1.8885442841565236e-05
-8.324935333803296e-05,0.00010521509102545679,-3.453728641034104e-05,1.8426222595735453e-05
-8.522452844772488e-05,0.00010147438297281042,-3.415501123527065e-05,1.7216891137650236e-05
-8.218916627811268e-05,8.753385918680578e-05,-3.2840081985341385e-05,1.7798605767893605e-05
-7.9424622526858e-05,7.758734136587009e-05,-3.0023637009435333e-05,2.0682235117419623e-05
-8.12698490335606e-05,6.823746662121266e-05,-2.796848457364831e-05,2.4019651391427033e-05
-8.345428068423644e-05,5.0175414799014106e-05,-2.7380112442187965e-05,2.3460212105419487e-05
-7.776045094942674e-05,2.814863000821788e-05,-2.6271454771631397e-05,2.2029875253792852e-05
-6.6586937464308e-05,1.712138509901706e-05,-2.3960135877132416e-05,2.5607632778701372e-05
-6.001664587529376e-05,2.1564908820437267e-05,-2.2112457372713834e-05,3.127766467514448e-05
-6.364723958540708e-05,3.3497493859613314e-05,-2.097393553412985e-05,3.248038774472661e-05
-7.43059572414495e-05,4.659111436922103e-05,-2.0801340724574402e-05,2.6906136554316618e-05
-8.107816393021494e-05,6.11286232015118e-05,-2.384483377682045e-05,2.0384066374390386e-05
-8.332019933732226e-05,7.381864998023957e-05,-2.8060811018804088e-05,1.7404747268301435e-05
-8.895597420632839e-05,8.670059469295666e-05,-3.0153823900036514e-05,1.8156157238991e-05
-9.079401206690818e-05,9.982887422665954e-05,-2.7675230739987455e-05,1.776964563759975e-05
-7.97865359345451e-05,9.710137965157628e-05,-2.2777627236791886e-05,1.799742858565878e-05
-6.595595186809078e-05,7.261546124937013e-05,-2.1306141206878237e-05,2.0409708668012172e-05
-5.867525760550052e-05,5.02713919559028e-05,-2.6521900508669205e-05,2.227070763183292e-05
-5.431424506241456e-05,4.385346983326599e-05,-3.356210800120607e-05,2.045533256023191e-05
-4.9387199396733195e-05,4.074869866599329e-05,-3.802196079050191e-05,1.5912044545984827e-05
-4.8949896154226735e-05,3.698686487041414e-05,-3.902968455804512e-05,1.4837191883998457e-05
-5.303659781930037e-05,3.9558293792651966e-05,-3.638921771198511e-05,1.700481698208023e-05
-5.234219497651793e-05,4.607633309205994e-05,-3.421878136578016e-05,1.9170320229022764e-05
-4.700719364336692e-05,4.7835932491580024e-05,-3.395209205336869e-05,2.233629311376717e-05
-4.30880427302327e-05,3.557511081453413e-05,-2.982169644383248e-05,2.49765671469504e-05
-4.4300220906734467e-05,8.056706064962782e-06,-2.318549195479136e-05,2.3607653929502703e-05
-4.7381243348354474e-05,-2.4881090212147683e-05,-1.9429186068009585e-05,1.9774275642703287e-05
-4.480420466279611e-05,-4.7716232074890286e-05,-1.914950189529918e-05,1.602177508175373e-05
-3.936831126338802e-05,-5.371420047595166e-05,-1.9353341485839337e-05,1.6533238522242755e-05
-3.3361295209033415e-05,-4.565007839119062e-05,-1.666928073973395e-05,1.6677176972734742e-05
-2.9577002351288684e-05,-2.8075393856852315e-05,-1.2672337106778286e-05,1.3775978004559875e-05
-2.9079685191391036e-05,-2.9429547794279642e-06,-8.203434845199808e-06,1.2641125067602843e-05
-2.758278787950985e-05,2.9711709430557676e-05,-3.959021341870539e-06,1.5448818885488436e-05
-2.5849238227237947e-05,6.254028266994283e-05,-3.0873272862663725e-06,2.0782983483513817e-05
-2.659845631569624e-05,8.347941184183583e-05,-6.500279141619103e-06,2.6005882318713702e-05
-2.6743600756162778e-05,8.650756353745237e-05,-1.1009776244463865e-05,2.8689313694485463e-05
-2.2838836230221204e-05,7.592449401272461e-05,-1.6460364349768497e-05,2.989826134580653e-05
-1.935366162797436e-05,5.728434553020634e-05,-2.7117113859276287e-05,3.488271977403201e-05
-1.9636989236460067e-05,3.5837667383020744e-05,-3.837262556771748e-05,4.250934944138862e-05
-2.2095553504186682e-05,1.637611239857506e-05,-4.289180651539937e-05,4.8948357289191335e-05
-2.709194814087823e-05,4.210923179925885e-06,-4.4751999666914344e-05,5.107342076371424e-05
-3.132990241283551e-05,1.4568840356332657e-07,-4.8716367018641904e-05,4.720220749732107e-05
-3.471409945632331e-05,2.45197298909261e-07,-4.974009425495751e-05,3.737780571100302e-05
-4.380984682939015e-05,1.0331068551749922e-06,-4.7144345444394276e-05,2.7806065190816298e-05
-5.800131839350797e-05,-3.3181506751134293e-06,-4.370998794911429e-05,2.265005787194241e-05
-6.531575490953401e-05,-1.3481415408023167e-05,-3.854205715470016e-05,2.1247213226160966e-05
-6.237818161025643e-05,-2.3446313207386993e-05,-3.176027166773565e-05,1.9789560610661283e-05
-6.156406743684784e-05,-2.145997859770432e-05,-2.675027644727379e-05,1.9063871150137857e-05
-5.994712046231143e-05,-4.77532239528955e-06,-2.8134136300650425e-05,1.9724233425222337e-05
-5.971569044049829e-05,1.8823293430614285e-05,-3.074407868552953e-05,2.1412204660009593e-05
-5.9183843404753134e-05,4.307191557018086e-05,-3.074049891438335e-05,2.593038880149834e-05
-5.492292621056549e-05,5.5271899327635765e-05,-3.181452848366462e-05,3.1524257792625576e-05
-5.49873620911967e-05,5.104543379275128e-05,-3.4492561098886654e-05,3.395463863853365e-05
-6.210446008481085e-05,3.399827619432472e-05,-3.677539643831551e-05,3.108570308540948e-05
-7.017287862254307e-05,1.0477094292582478e-05,-3.7082787457620725e-05,2.5911576813086867e-05
-6.98703370289877e-05,-1.0090139767271467e-05,-3.552891212166287e-05,2.118176234944258e-05
-6.474767724284902e-05,-1.7240196029888466e-05,-3.31428564095404e-05,1.871248969109729e-05
-5.8202898799208924e-05,-1.0360583473811857e-05,-2.8867510991403833e-05,1.7753329302649945e-05
-4.848514436162077e-05,-1.7420678659618716e-06,-2.4030297936405987e-05,1.9204728232580237e-05
-3.8975762436166406e-05,-2.454861487422022e-06,-2.2487571186502464e-05,2.107232103298884e-05
-3.487117646727711e-05,-1.4111003110883757e-05,-2.4245306121883914e-05,1.9107315893052146e-05
-3.685789852170274e-05,-2.7016234525945038e-05,-2.5830517188296653e-05,1.4632388229074422e-05
-4.321091910242103e-05,-3.2378338801208884e-05,-2.5191833628923632e-05,1.3040236808592454e-05
-4.659266778617166e-05,-2.896661317208782e-05,-2.3365641027339734e-05,1.3819620107824448e-05
-4.458214607439004e-05,-2.0837585907429457e-05,-2.304698500665836e-05,1.6751204384490848e-05
-4.346022251411341e-05,-1.4159778402245138e-05,-2.5584606191841885e-05,2.1568966985796578e-05
-4.520490256254561e-05,-7.893978363426868e-06,-2.813568789861165e-05,2.4724413378862664e-05
-4.7927471314324066e-05,5.734587375627598e-06,-2.7922020308324136e-05,2.675564246601425e-05
-4.7986188292270526e-05,2.3072940166457556e-05,-2.303121618751902e-05,2.901198240579106e-05
-4.712196459877305e-05,3.406184259802103e-05,-1.687671465333551e-05,2.9286367862368934e-05
-4.8129793867701665e-05,4.032801007269882e-05,-1.733050521579571e-05,2.7890604542335495e-05
-5.135384344612248e-05,4.636319863493554e-05,-2.421332465019077e-05,2.7837757443194278e-05
-5.3427243983605877e-05,5.024292477173731e-05,-2.5929888579412363e-05,3.065097553189844e-05
-5.349053390091285e-05,5.516816599993035e-05,-2.1681622456526384e-05,3.104503048234619e-05
-5.646579302265309e-05,6.153790309326723e-05,-1.84602067747619e-05,2.9162389182602055e-05
-5.375352338887751e-05,6.699229561490938e-05,-1.4175756405165885e-05,2.6690016966313124e-05
-4.746994818560779e-05,7.162024121498689e-05,-1.0519153875065967e-05,2.179512921429705e-05
-4.431689376360737e-05,7.346255733864382e-05,-1.1700616596499458e-05,1.7924523490364663e-05
-4.57345595350489e-05,7.044836092973128e-05,-1.808545130188577e-05,1.5752186300233006e-05
-4.779215669259429e-05,6.0958045651204884e-05,-2.429223241051659e-05,1.6558014976908453e-05
-4.2929888877552e-05,5.069212056696415e-05,-2.448467603244353e-05,1.6511436115251854e-05
-3.4533852158347145e-05,4.880488995695487e-05,-1.8888500562752597e-05,1.6666492228978314e-05
-3.4283209970453754e-05,5.3475207096198574e-05,-1.2630322089535184e-05,1.831500048865564e-05
-4.0398987039225176e-05,5.70898009755183e-05,-1.1510075637488626e-05,2.4932098313001916e-05
-4.25149301008787e-05,5.6048160331556574e-05,-1.2351974874036387e-05,3.4166423574788496e-05
-3.918492438970134e-05,5.067030360805802e-05,-9.352927008876577e-06,3.739763633348048e-05
-3.564062717487104e-05,4.086392800672911e-05,-6.4411906350869685e-06,3.325982470414601e-05
-3.5768829548032954e-05,3.2947009458439425e-05,-9.954964298231062e-06,2.8114884116803296e-05
-3.797342287725769e-05,3.3494590752525255e-05,-2.1129424567334354e-05,2.7635842343443073e-05
-4.2902003769995645e-05,3.651740189525299e-05,-3.1938569009071216e-05,2.7679277991410345e-05
-4.733845344162546e-05,3.585658851079643e-05,-3.35659715346992e-05,2.438381125102751e-05
-4.857201565755531e-05,4.0211976738646626e-05,-3.177807593601756e-05,1.847026578616351e-05
-4.87659708596766e-05,5.715198494726792e-05,-3.5887940612155944e-05,1.6242845958913676e-05
-5.0740836741169915e-05,7.546048436779529e-05,-4.3020951125072315e-05,2.023290107899811e-05
-5.4152569646248594e-05,8.478668314637616e-05,-4.412342605064623e-05,2.2188951334101148e-05
-5.5943106417544186e-05,7.981568342074752e-05,-4.013775469502434e-05,1.73035678017186e-05
-5.277562013361603e-05,5.357617192203179e-05,-3.428250056458637e-05,1.0513611414353363e-05
-5.045551370130852e-05,2.389352630416397e-05,-2.985007995448541e-05,6.267754997679731e-06
-5.056181180407293e-05,2.9330369216040708e-05,-2.9315060601220466e-05,7.612177341798088e-06
-5.245163993095048e-05,5.6181343097705394e-05,-3.1059487810125574e-05,8.652448741486296e-06
-5.285329098114744e-05,6.686586129944772e-05,-3.692947939271107e-05,1.060716385836713e-05
-5.052974302088842e-05,5.0499573262641206e-05,-3.9861752156866714e-05,1.182440246338956e-05
-4.8176738346228376e-05,7.668211765121669e-06,-3.636578912846744e-05,1.1604643987084273e-05
-4.7108133003348485e-05,-4.6850560465827584e-05,-3.1490748369833454e-05,1.3282092368172016e-05
-4.725829421659e-05,-9.065571066457778e-05,-2.7587908334680833e-05,1.4242999895941466e-05
-4.731579247163609e-05,-0.00010132173338206485,-2.6437062842887826e-05,1.658299697737675e-05
-4.81642346130684e-05,-7.734882092336193e-05,-2.7187614250578918e-05,1.996727405639831e-05
-5.330217754817568e-05,-3.7350640923250467e-05,-2.7336924176779576e-05,1.944974428624846e-05
-6.367289461195469e-05,-5.638627499138238e-06,-2.57247120316606e-05,1.4926062249287497e-05
-7.382633339148015e-05,7.798550541338045e-06,-2.3276767024071887e-05,1.120860906667076e-05
-8.21128924144432e-05,1.6200800018850714e-05,-2.2306829123408534e-05,1.020848321786616e-05
-8.490502659697086e-05,3.3651591365924105e-05,-2.3103073544916697e-05,9.68816220847657e-06
-7.749843643978238e-05,5.4171181545825675e-05,-2.4083321477519348e-05,7.466869647032581e-06
-6.460508302552626e-05,6.887178460601717e-05,-2.3887014322099276e-05,6.539385594805935e-06
-5.667515506502241e-05,8.574165985919535e-05,-2.3434649847331457e-05,9.946518730430398e-06
-5.9650239563779905e-05,0.0001092326347134076,-2.368602144997567e-05,1.7061669495888054e-05
-6.902012682985514e-05,0.0001291668595513329,-2.1272391677484848e-05,2.4028875486692414e-05
-7.347009523073211e-05,0.00013503058289643377,-1.903757220134139e-05,2.7042658985010348e-05
-7.221016858238727e-05,0.00013455799489747733,-2.0734303689096123e-05,2.6544897991698235e-05
-6.959233724046499e-05,0.00013532313460018486,-2.282352033944335e-05,2.6499825253267772e-05
-7.085355900926515e-05,0.0001289942883886397,-2.4600327378720976e-05,2.653688716236502e-05
-7.145389827201143e-05,0.0001124857590184547,-2.755834793788381e-05,2.650647729751654e-05
-6.401944847311825e-05,8.991755021270365e-05,-2.7098696591565385e-05,2.6467632778803818e-05
-5.684560528607108e-05,6.340564868878573e-05,-2.3641141524421982e-05,2.600173684186302e-05
-5.352667722036131e-05,4.414518116391264e-05,-2.244075949420221e-05,2.6966308723785914e-05
-5.381337905419059e-05,3.225266118533909e-05,-2.3396547476295382e-05,2.652018520166166e-05
-5.2870607760269195e-05,1.430548400094267e-05,-2.635113378346432e-05,2.3967779270606115e-05
-4.827895463677123e-05,-5.125132247485453e-06,-2.95526951958891e-05,2.3270242309081368e-05
-4.622244159691036e-05,-7.4788326855923515e-06,-3.248596112825908e-05,2.6445817638887092e-05
-4.4753938709618524e-05,9.570982911100145e-06,-3.153793659294024e-05,3.18689999403432e-05
-4.3718478991650045e-05,3.1413266697200015e-05,-2.4964907424873672e-05,3.4630909794941545e-05
-4.0345301385968924e-05,4.406187144923024e-05,-1.6728437913116068e-05,3.3543088648002595e-05
-3.143852518405765e-05,4.4764357880922034e-05,-1.2481893463700544e-05,3.2761461625341326e-05
-2.1930914954282343e-05,3.9868293242761865e-05,-1.4112377357378136e-05,3.62755854439456e-05
-1.5800960682099685e-05,3.5116696381010115e-05,-1.5230883036565501e-05,4.065483153681271e-05
-1.5540597814833745e-05,3.434318205108866e-05,-1.6973994206637144e-05,4.310280564823188e-05
-2.1280260625644587e-05,3.50456903106533e-05,-1.980732304218691e-05,4.1546489228494465e-05
-2.9398774131550454e-05,3.3233340218430385e-05,-2.3792623323970474e-05,3.801833372563124e-05
-3.460064181126654e-05,2.66310617007548e-05,-2.5836889108177274e-05,3.5933459002990276e-05
-3.660486254375428e-05,1.8860317140934058e-05,-2.459540883137379e-05,3.4369531931588426e-05
-3.974860374000855e-05,1.1683177945087664e-05,-2.1881442080484703e-05,2.9776017981930636e-05
-4.5043634600006044e-05,5.077389687357936e-06,-1.930965663632378e-05,2.359450991207268e-05
-4.945160981151275e-05,6.915036010468611e-07,-1.832965608628001e-05,1.8475438992027193e-05
-5.178145147510804e-05,-1.2388410368657787e-06,-1.8961422028951347e-05,1.6128988136188127e-05
-5.163732566870749e-05,-6.46342959953472e-06,-1.8616625311551616e-05,2.0189323549857363e-05
-4.641858322429471e-05,-1.667252399784047e-05,-1.744232213241048e-05,2.608768227219116e-05
-3.961808397434652e-05,-1.627270830795169e-05,-2.1302001186995767e-05,2.7081367079517804e-05
-3.504387132124975e-05,6.759591542504495e-06,-2.561763540143147e-05,2.5522989744786173e-05
-3.0010643968125805e-05,3.733501580427401e-05,-2.8601099984371103e-05,2.594502075226046e-05
-2.1292784367688e-05,4.703872400568798e-05,-3.053711407119408e-05,2.6434965548105538e-05
-9.072801731235813e-06,3.906017082044855e-05,-2.8207567083882168e-05,2.6703088224167004e-05
-3.2331954002984276e-07,3.664571340777911e-05,-2.662686529220082e-05,2.7921392756979913e-05
2.860132326532039e-06,2.9421915314742364e-05,-2.7054091333411634e-05,2.699920514714904e-05
2.8816443773393985e-06,3.0340861485456116e-06,-2.6963196432916448e-05,2.3074950149748474e-05
4.3942650336248334e-06,-2.297356513736304e-05,-3.0827672162558883e-05,2.0885861886199564e-05
4.6368390940187965e-06,-2.8831689633079804e-05,-3.159991683787666e-05,2.286319613631349e-05
-3.216973482267349e-06,-1.2366173905320466e-05,-2.8488704629126005e-05,2.9170116249588318e-05
-1.3781068446405698e-05,1.909761158458423e-05,-2.5016837753355503e-05,3.612536966102198e-05
-1.9460712792351842e-05,5.412709288066253e-05,-2.1340172679629177e-05,4.08891100960318e-05
-2.0205035980325192e-05,8.115296805044636e-05,-2.069599759124685e-05,3.791393828578293e-05
-2.828674223565031e-05,9.381680865772069e-05,-2.3253071049111895e-05,3.0022216378711164e-05
-4.345324487076141e-05,8.368327689822763e-05,-2.787341145449318e-05,2.2501453713630326e-05
-5.288630200084299e-05,5.720467379433103e-05,-3.226432454539463e-05,1.845742553996388e-05
-5.638441871269606e-05,4.691208596341312e-05,-3.550261681084521e-05,1.9358916688361205e-05
-6.452034722315148e-05,7.062975055305287e-05,-3.5131881304550916e-05,2.3868436983320862e-05
-8.000134403118864e-05,0.00011755609011743218,-3.223623934900388e-05,2.9271594030433334e-05
-9.451498044654727e-05,0.00016008841339498758,-3.111485784756951e-05,3.132181882392615e-05
-0.00010009254037868232,0.0001735692349029705,-3.364335134392604e-05,2.815682273649145e-05
-0.00010172073234571144,0.0001641975250095129,-3.8021462387405336e-05,2.4307219064212404e-05
-0.0001099745713872835,0.00015837819955777377,-4.108907887712121e-05,2.415982453385368e-05
-0.00012297242938075215,0.00015706928388681263,-4.042017462779768e-05,2.4682765797479078e-05
-0.0001286631013499573,0.0001369006058666855,-3.5941353417001665e-05,2.47599309659563e-05
-0.00011857153003802523,9.912583482218906e-05,-3.069166632485576e-05,2.4903169105527923e-05
-9.915923146763816e-05,6.414916424546391e-05,-2.7931044314755127e-05,2.3906126443762332e-05
-8.130718197207898e-05,3.693701728479937e-05,-2.7378886443329975e-05,2.0248071450623684e-05
-6.770148320356384e-05,9.864847925200593e-06,-2.539822889957577e-05,1.780088678060565e-05
-5.824803884024732e-05,-2.6471961973584257e-05,-2.450831379974261e-05,1.7361189748044126e-05
-5.3129671869101e-05,-7.470389391528443e-05,-2.653161391208414e-05,1.9577661078074016e-05
-4.9532492994330823e-05,-0.00011022824764950201,-2.7761609089793637e-05,2.093211696774233e-05
-4.9764483264880255e-05,-0.00010618860687827691,-2.765851968433708e-05,1.8707727576838806e-05
-5.0787333748303354e-05,-7.931431173346937e-05,-2.4931588995968923e-05,1.6592319298069924e-05
-4.952246672473848e-05,-5.8628716942621395e-05,-2.1061316147097386e-05,1.4543413271894678e-05
-4.521178198046982e-05,-4.6683802793268114e-05,-2.0536588635877706e-05,1.4404082321561873e-05
-4.303511741454713e-05,-3.659505455289036e-05,-2.2718177206115797e-05,2.038763886957895e-05
-4.52626081823837e-05,-2.0906167264911346e-05,-2.179759212594945e-05,2.6549636459094472e-05
-4.6682762331329286e-05,-4.771613021148369e-06,-1.8060965885524638e-05,2.6589070330373943e-05
-5.026935468777083e-05,2.247837073809933e-06,-1.6881598639884032e-05,2.4177928935387172e-05
-5.422207323135808e-05,3.790329174080398e-06,-2.0464141925913282e-05,2.4534238036721945e-05
-5.561528814723715e-05,-9.775818625712418e-07,-2.5125889806076884e-05,2.638110709085595e-05
-5.5322212574537843e-05,-5.4798824749013875e-06,-2.6695137421484105e-05,2.720944758038968e-05
-5.577609408646822e-05,1.414609073435713e-06,-2.4798562662908807e-05,2.8201635359437205e-05
-5.26943986187689e-05,1.931750557560008e-05,-2.344851782254409e-05,2.9078219085931778e-05
-4.6457964344881475e-05,3.958644447266124e-05,-2.342129300814122e-05,2.8401593226590194e-05
-4.474813613342121e-05,5.4585616453550756e-05,-2.238941851828713e-05,2.691276131372433e-05
-4.910028292215429e-05,6.238969945115969e-05,-2.223929186584428e-05,2.3500810129917227e-05
-5.4010226449463516e-05,6.19999336777255e-05,-2.4408258468611166e-05,1.9780040020123124e-05
-5.473284181789495e-05,5.617567148874514e-05,-2.8683605705737136e-05,2.0251251044101082e-05
-5.3490130085265264e-05,5.157049236004241e-05,-3.157128594466485e-05,2.4169901735149324e-05
-5.352892549126409e-05,5.1665228966157883e-05,-3.211076545994729e-05,2.652222065080423e-05
-5.4482479754369706e-05,5.06241231050808e-05,-3.247793938498944e-05,2.599159415694885e-05
-5.4351035942090675e-05,4.3587435357039794e-05,-3.2122876291396096e-05,2.397652860963717e-05
-5.354566019377671e-05,3.328419552417472e-05,-2.9463668397511356e-05,2.1789659513160586e-05
-5.593747482635081e-05,2.5766625185497105e-05,-2.5919480322045274e-05,1.9858332962030545e-05
-6.431843939935789e-05,2.0469175069592893e-05,-2.2517853722092696e-05,1.8667857148102485e-05
-6.727672007400542e-05,1.0415948054287583e-05,-2.0457613572943956e-05,2.133111956936773e-05
-6.016186307533644e-05,-3.3227211133635137e-06,-1.9560658984119073e-05,2.7542087991605513e-05
-5.476549995364621e-05,-1.7886215573525988e-05,-1.6807996871648356e-05,3.0480045097647235e-05
-5.080543633084744e-05,-2.240598769276403e-05,-1.5593819625792094e-05,2.8054602807969786e-05
-4.607259688782506e-05,-1.1929788342968095e-05,-1.754891127347946e-05,2.671756737981923e-05
-4.0508606616640463e-05,-6.67371580220788e-07,-1.9898126993211918e-05,2.6201701984973624e-05
-3.616030517150648e-05,-4.333754986873828e-06,-2.2623673430643976e-05,2.155316724383738e-05
-3.661196387838572e-05,-1.6759886420913972e-05,-2.5105115128098987e-05,1.5995379726518877e-05
-3.825448584393598e-05,-2.330772258574143e-05,-2.5085502784349956e-05,1.6989151845336892e-05
-4.038239421788603e-05,-2.5055600417545065e-05,-2.2618285584030673e-05,1.9595476260292344e-05
-3.564820144674741e-05,-2.080533158732578e-05,-2.0005638361908495e-05,2.1330546587705612e-05
-2.693419810384512e-05,-1.3961424883746076e-05,-1.9057797544519417e-05,2.3576951207360253e-05
-2.0923484044033103e-05,-4.23067604060634e-06,-1.9224053176003508e-05,2.779430360533297e-05
-1.6525615137652494e-05,9.804784895095509e-06,-1.8869843188440427e-05,3.0643062927993014e-05
-1.3618725461128633e-05,2.863368354155682e-05,-1.936804983415641e-05,2.825480441970285e-05
-1.4706884030601941e-05,4.677169636124745e-05,-1.8382866983301938e-05,2.363241947023198e-05
-1.887507642095443e-05,5.794535900349729e-05,-1.7157997717731632e-05,2.277620296808891e-05
-2.3751414119033143e-05,5.8929832448484376e-05,-1.786853863450233e-05,2.693463466130197e-05
-2.833406688296236e-05,5.4008327424526215e-05,-2.0019851945107803e-05,2.8137130357208662e-05
-3.203333471901715e-05,5.6633980420883745e-05,-2.3057586076902226e-05,2.437668626953382e-05
-3.728008232428692e-05,6.563228816958144e-05,-2.654721356520895e-05,2.1551348254433833e-05
-4.2551924707368016e-05,6.327156006591395e-05,-2.8427837605704553e-05,2.1596621081698686e-05
-4.5258850150275975e-05,4.250746496836655e-05,-2.6263820473104715e-05,2.268186835863162e-05
-4.4669715862255543e-05,1.2186135791125707e-05,-2.2949390768189915e-05,2.3498350856243633e-05
-4.313202225603163e-05,-1.4195501535141375e-05,-2.3762182536302134e-05,1.9916767996619456e-05
-4.1182225686497986e-05,-1.8539885786594823e-05,-2.7119765945826657e-05,1.4902443581377156e-05
-4.0487939259037375e-05,1.8418652416585246e-06,-2.7249341655988246e-05,1.1832155905722175e-05
-4.438626274350099e-05,3.1646599381929263e-05,-2.7273308660369366e-05,1.4373695194080938e-05
-5.017249714001082e-05,4.613762939698063e-05,-2.8990218197577633e-05,2.446878897899296e-05
-4.965162952430546e-05,4.9070469685830176e-05,-2.910385410359595e-05,2.927179230027832e-05
-4.687542241299525e-05,6.285702693276107e-05,-2.950154521386139e-05,2.5494868168607354e-05
-4.977145363227464e-05,9.100083116209134e-05,-3.0687268008477986e-05,2.5034079953911714e-05
-6.13793235970661e-05,0.00010176978685194626,-2.834616861946415e-05,2.4286346160806715e-05
-7.352750981226563e-05,8.501586125930771e-05,-2.7986114218947478e-05,2.3592774596181698e-05
-7.495598401874304e-05,6.804724398534745e-05,-3.1611671147402376e-05,2.2640051611233503e-05
-6.581239722436294e-05,5.972568760626018e-05,-3.445920083322562e-05,1.99306923605036e-05
-5.694000356015749e-05,5.6943477829918265e-05,-3.4437231079209596e-05,1.7257169020012952e-05
-5.554378731176257e-05,5.697261804016307e-05,-3.2621501304674894e-05,1.3860427316103596e-05
-5.80177984375041e-05,5.7090634072665125e-05,-2.972914262500126e-05,1.437216269550845e-05
-5.986022370052524e-05,5.3761097660753876e-05,-2.8689775717793964e-05,1.7239246517419815e-05
-5.9696809330489486e-05,4.517467459663749e-05,-2.6017220079666004e-05,1.9594195691752248e-05
-5.7859990192810073e-05,3.2941530662355945e-05,-2.080880403809715e-05,1.8927179553429596e-05
-5.5123829952208325e-05,2.131186192855239e-05,-2.063763895421289e-05,1.937088745762594e-05
-5.340466304915026e-05,1.3203239177528303e-05,-2.4848473913152702e-05,2.2836338757770136e-05
-5.0568836741149426e-05,8.917362720239908e-06,-2.654007766977884e-05,2.6951021936838515e-05
-4.86195131088607e-05,5.045949819759699e-06,-2.3591048375237733e-05,2.8491629564086907e-05
-5.1099032134516165e-05,2.854175590982777e-06,-2.104093618982006e-05,2.7168658562004566e-05
-5.249859896139242e-05,3.9493702388426755e-06,-2.079777004837524e-05,2.616110214148648e-05
-4.7801720938878134e-05,2.5983301839005435e-06,-2.3163260266301222e-05,2.742797187238466e-05
-4.4979300582781434e-05,-4.456064289115602e-06,-2.7821175535791554e-05,2.7783411496784538e-05
-4.810969767277129e-05,-2.8240751817065757e-06,-3.1452593248104677e-05,2.750457133515738e-05
-4.862088098889217e-05,1.6616362700005993e-05,-3.1123494409257546e-05,3.10816103592515e-05
-4.426734449225478e-05,3.733315315912478e-05,-2.9956379876239225e-05,3.528251909301616e-05
-3.791295603150502e-05,4.605211506714113e-05,-2.7692791263689287e-05,3.49990077666007e-05
-3.228579953429289e-05,5.341424548532814e-05,-2.4009721528273076e-05,3.0057093681534752e-05
-3.809976260527037e-05,6.706243584631011e-05,-2.2126976546132937e-05,2.6607565814629197e-05
-5.4636930144624785e-05,8.05591989774257e-05,-2.533685437811073e-05,2.5006544092320837e-05
-6.833088991697878e-05,8.215808338718489e-05,-3.4026961657218635e-05,2.111044705088716e-05
-7.610174361616373e-05,6.798666436225176e-05,-3.833129449049011e-05,1.8503129467717372e-05
-8.191802771762013e-05,4.7874858864815906e-05,-3.4173815947724506e-05,2.036351725109853e-05
-8.509981853421777e-05,3.3903947041835636e-05,-3.1761068385094404e-05,2.167107777495403e-05
-8.329060801770538e-05,3.282780016888864e-05,-3.514361014822498e-05,2.2266231098910794e-05
-7.550698501290753e-05,3.647656922112219e-05,-3.688646393129602e-05,2.233702252851799e-05
-6.828174809925258e-05,4.385853753774427e-05,-3.550078326952644e-05,2.1438656403915957e-05
-7.194275531219319e-05,5.8863199228653684e-05,-3.516462311381474e-05,2.1162042685318738e-05
-8.01166461315006e-05,7.220527913887054e-05,-3.557741365511902e-05,2.1138070223969407e-05
-7.852058479329571e-05,7.089676364557818e-05,-3.618992923293263e-05,2.1700607248931192e-05
-6.99483571224846e-05,6.885721086291596e-05,-3.4469831007299945e-05,2.404362749075517e-05
-5.939807306276634e-05,8.589269418735057e-05,-3.197870319127105e-05,2.7481795768835582e-05
-4.639815233531408e-05,0.00011459818051662296,-2.8601562007679604e-05,2.9634571546921507e-05
-3.624636883614585e-05,0.0001294485409744084,-2.509744263079483e-05,2.966932879644446e-05
-3.547912274370901e-05,0.00011275843280600384,-2.5454522983636707e-05,2.850094278983306e-05
-4.54814507975243e-05,7.002303755143657e-05,-2.9873834137106314e-05,2.8227459551999345e-05
-5.7352222938789055e-05,2.0151110220467672e-05,-3.248749271733686e-05,2.9035376428510062e-05
-5.985479219816625e-05,-1.700750544841867e-05,-2.8816430130973458e-05,3.0221175620681606e-05
-5.241469989414327e-05,-3.461116284597665e-05,-2.0981175111955963e-05,3.277370342402719e-05
-4.5050364860799164e-05,-3.6149314837530255e-05,-1.612101732462179e-05,3.622034637373872e-05
-4.048252594657242e-05,-2.7041882276535034e-05,-1.503993735241238e-05,3.771633782889694e-05
-3.7009220250183716e-05,-8.997543773148209e-06,-1.2739662452077027e-05,3.687530988827348e-05
-3.550277688191272e-05,1.3324772226042114e-05,-1.4016744898981415e-05,3.583910802262835e-05
-3.900628871633671e-05,3.244567051297054e-05,-1.737489947117865e-05,3.489921073196456e-05
-4.738387724501081e-05,3.816137177636847e-05,-1.8911441657110117e-05,3.1161285733105615e-05
-4.915905083180405e-05,2.9628819902427495e-05,-1.9949220586568117e-05,2.8153534003649838e-05
-4.310045187594369e-05,1.6693677025614306e-05,-2.1741847376688384e-05,2.679883073142264e-05
-3.836201358353719e-05,1.1124604498036206e-05,-1.8016940884990618e-05,2.4628161554574035e-05
-3.3757569326553494e-05,9.349232641397975e-06,-1.3609195775643457e-05,2.6066405553137884e-05
-3.1261108233593404e-05,5.569090717472136e-06,-1.481651997892186e-05,3.0334462280734442e-05
-3.3815260394476354e-05,6.697428943880368e-06,-2.1287563868099824e-05,3.0471386708086357e-05
-3.7070301914354786e-05,1.721886292216368e-05,-2.600561492727138e-05,2.6301295292796567e-05
-4.005921437055804e-05,2.7978716389043257e-05,-2.317577673238702e-05,2.4856513846316375e-05
-3.9135564293246716e-05,3.267267675255425e-05,-2.0250929082976654e-05,2.7674501325236633e-05
-3.284421472926624e-05,3.6746070691151544e-05,-1.9586072085076012e-05,3.0182953196344897e-05
-2.8579022909980267e-05,3.729539821506478e-05,-2.1257830667309463e-05,2.7410100301494822e-05
-3.0994677217677236e-05,3.4222313843201846e-05,-2.1217309040366672e-05,2.2160180378705263e-05
-3.450605072430335e-05,3.3140760933747515e-05,-2.1334590201149695e-05,2.0300843971199356e-05
-3.456438935245387e-05,3.708448275574483e-05,-2.3755128495395184e-05,2.226805554528255e-05
-3.3787477150326595e-05,3.85108360205777e-05,-2.687411142687779e-05,2.3242791939992458e-05
-3.437776103965007e-05,3.509952875901945e-05,-2.862971814465709e-05,2.0555113223963417e-05
-3.480136729194783e-05,2.914263677666895e-05,-2.8523738365038298e-05,1.761830208124593e-05
-3.422571535338648e-05,2.322690124856308e-05,-2.7972657335340045e-05,1.7997290342464112e-05
-3.703716356540099e-05,2.3718614102108404e-05,-2.9468401407939382e-05,2.040421895799227e-05
-4.189168612356298e-05,3.3285054087173194e-05,-3.1668161682318896e-05,2.0609852072084323e-05
-4.3880481825908646e-05,4.161320975981653e-05,-3.059496884816326e-05,1.6797172065707855e-05
-4.3601281504379585e-05,3.984119393862784e-05,-2.95643912977539e-05,1.2917329513584264e-05
-4.285065733711235e-05,3.367335375514813e-05,-3.232614108128473e-05,1.3760193724010605e-05
-4.1218390833819285e-05,3.122440830338746e-05,-3.263097823946737e-05,1.744363908073865e-05
-4.1035335016204044e-05,3.5418011975707486e-05,-2.6000239813583903e-05,2.0983849026379175e-05
-4.1331622924190015e-05,3.988937896792777e-05,-2.353743911953643e-05,2.302484972460661e-05
-4.242809518473223e-05,4.3598567572189495e-05,-2.8221420507179573e-05,2.306793976458721e-05
-4.52992353530135e-05,4.4291617086855695e-05,-3.160862615914084e-05,2.0127195966779254e-05
-4.649133552447893e-05,3.797457247856073e-05,-3.0364350095624104e-05,1.5798968888702802e-05
-4.6523648052243516e-05,2.6419647838338278e-05,-2.7869566110894084e-05,1.4863812793919351e-05
-4.910443021799438e-05,1.359592170047108e-05,-2.6009014618466608e-05,1.5586270819767378e-05
-5.5616896133869886e-05,4.499635451793438e-06,-2.557634434197098e-05,1.5046456610434689e-05
-6.037834828021005e-05,-3.1356833005702356e-06,-2.6724361305241473e-05,1.616470399312675e-05
-6.39627905911766e-05,-6.169755579321645e-06,-2.8738937544403598e-05,1.6501644495292567e-05
-6.511211540782824e-05,-1.9531769339664606e-06,-2.968550325022079e-05,1.6396885257563554e-05
-6.504992779809982e-05,1.906392981254612e-06,-3.0735365726286545e-05,1.7777152606868185e-05
-6.70201116008684e-05,3.910268333129352e-06,-3.29089853039477e-05,1.7307413145317696e-05
-7.01163662597537e-05,-4.596664382461313e-08,-3.395413659745827e-05,1.5174157852015924e-05
-7.103943062247708e-05,-1.1023865226889029e-05,-3.387254037079401e-05,1.699536369415e-05
-6.784478318877518e-05,-2.233691884612199e-05,-3.256371201132424e-05,2.3143782527768053e-05
-6.229436257854104e-05,-2.7240019335295074e-05,-2.9899551009293646e-05,2.607673559396062e-05
-5.452311961562373e-05,-2.2386928321793675e-05,-3.033764187421184e-05,2.4868559194146655e-05
-4.5862736442359164e-05,-1.1571723007364199e-05,-3.529786772560328e-05,2.547538315411657e-05
-4.0784492739476264e-05,6.369875791278901e-07,-4.12298395531252e-05,2.899737228290178e-05
-4.419346441864036e-05,1.512212293164339e-05,-4.506193727138452e-05,3.500264574540779e-05
-5.2492570830509067e-05,3.304202982690185e-05,-4.725819599116221e-05,4.065968096256256e-05
-5.856533607584424e-05,4.923144297208637e-05,-5.061484262114391e-05,4.166479266132228e-05
-6.0049216699553654e-05,5.767956099589355e-05,-5.107795004732907e-05,3.7270270695444196e-05
-6.0870694142067805e-05,6.19755664956756e-05,-4.512219675234519e-05,2.9447941415128298e-05
-6.328993185888976e-05,6.995638977969065e-05,-3.842029036604799e-05,2.3888691430329345e-05
-6.430326902773231e-05,8.510904444847256e-05,-3.440174623392522e-05,2.3270149540621787e-05
-6.387891335180029e-05,0.00010051033314084634,-2.7802982003777288e-05,2.430431413813494e-05
-6.383558502420783e-05,0.00010587648284854367,-1.641864400880877e-05,2.3070733732311055e-05
-6.538753950735554e-05,0.00010190824104938656,-3.852468125842279e-06,2.0568102627294138e-05
-7.01926983310841e-05,9.532144758850336e-05,5.175588739803061e-06,1.9148041246808134e-05
-6.818138353992254e-05,7.634716166649014e-05,8.744852493691724e-06,1.7691534594632685e-05
-6.327447044895962e-05,4.845664443564601e-05,6.7795840550388675e-06,1.1170944162586238e-05
-6.898513674968854e-05,3.531114634824917e-05,4.528169483819511e-06,7.550803729827749e-06
-7.863273640396073e-05,2.979283635795582e-05,4.372022885945626e-06,1.4665877642983105e-05
-7.905731035862118e-05,2.299526568094734e-05,1.4227410929379403e-06,2.1410598492366262e-05
-6.913955439813435e-05,1.5591685951221734e-05,-6.310230673989281e-06,2.1113402908667922e-05
-5.251933907857165e-05,7.293900125660002e-06,-1.648533361731097e-05,1.9196315406588838e-05
-3.740012107300572e-05,-7.047643180158047e-07,-2.400771336397156e-05,1.9464941942715086e-05
-3.052779720746912e-05,-3.515427124511916e-06,-2.7476868126541376e-05,2.085164305754006e-05
-2.7789072191808373e-05,-2.6659038212528685e-06,-3.1125720852287486e-05,2.1332287360564806e-05
-2.778158705041278e-05,1.3964588561066194e-06,-3.3324817195534706e-05,2.074792791972868e-05
-3.0394990972126834e-05,8.980036909633782e-06,-2.9613929655170068e-05,2.0830613721045665e-05
-3.3751377486623824e-05,1.5107430044736248e-05,-2.2911521227797493e-05,2.115173265337944e-05
-3.248262146371417e-05,1.6350049918401055e-05,-1.9532726582838222e-05,2.0994288206566125e-05
-2.5049437681445852e-05,1.5807321688043885e-05,-1.9676561350934207e-05,2.1652942450600676e-05
-1.6157478967215866e-05,2.5650075258454308e-05,-2.0970244804630056e-05,2.5208379156538285e-05
-1.5534733392996714e-05,4.5489628973882645e-05,-2.2275209630606696e-05,3.0367811632459052e-05
-2.5042019842658192e-05,5.96255122218281e-05,-2.4184066205634736e-05,3.319144525448792e-05
-3.553568240022287e-05,5.877799412701279e-05,-2.755749119387474e-05,3.3883585274452344e-05
-4.172775516053662e-05,5.266552761895582e-05,-3.0074204914853908e-05,3.2987238228088245e-05
-4.03110207116697e-05,4.9044763727579266e-05,-2.852051693480462e-05,2.9622053261846304e-05
-3.131575431325473e-05,4.938780330121517e-05,-2.523561124689877e-05,2.6922443794319406e-05
-2.548070733610075e-05,5.7830442528938875e-05,-2.5354162062285468e-05,2.7611518817138858e-05
-3.108508826699108e-05,8.020761015359312e-05,-2.7985719498246908e-05,2.531973586883396e-05
-4.6984067012090236e-05,0.00010444411600474268,-2.6856976546696387e-05,1.8576252841739915e-05
-6.303242116700858e-05,0.00011278752208454534,-2.4894408852560446e-05,1.522834827483166e-05
-7.003513019299135e-05,0.00011280998296570033,-2.4790389943518676e-05,1.656247695791535e-05
-6.596681487280875e-05,0.00011741294292733073,-2.1399195247795433e-05,1.6685851733200252e-05
-5.9431520639918745e-05,0.00011985406308667734,-1.7058211597031914e-05,1.6804096958367154e-05
-5.182827590033412e-05,0.00010087705595651641,-1.6112278899527155e-05,1.789141788322013e-05
-4.405078288982622e-05,5.8170913689536974e-05,-1.5703379176557064e-05,1.9196730136172846e-05
-4.5112832594895735e-05,2.325615605514031e-05,-9.870292160485405e-06,2.2538291887030937e-05
-5.303446960169822e-05,1.7027950889314525e-05,-6.7065434450341854e-06,2.5082154024858028e-05
-6.675257463939488e-05,2.4376928195124492e-05,-1.4299263057182543e-05,2.3538235836895183e-05
-8.45736067276448e-05,1.8003842342295684e-05,-2.8339440177660435e-05,1.8195889424532652e-05
-9.963256161427125e-05,-7.035192084003938e-06,-3.695336636155844e-05,1.844097459979821e-05
-0.0001002322169370018,-4.019377593067475e-05,-3.6253914004191756e-05,2.3818422050680965e-05
-9.244719694834203e-05,-7.174137135734782e-05,-3.139452019240707e-05,2.5855501007754356e-05
-8.534332300769165e-05,-9.298188524553552e-05,-2.8501364795374684e-05,2.1026611648267135e-05
-7.853833812987432e-05,-9.241631778422743e-05,-2.8518996259663254e-05,1.4819305761193391e-05
-7.481857028324157e-05,-7.205640577012673e-05,-3.126367664663121e-05,1.291651187784737e-05
-7.768451177980751e-05,-5.1855226047337055e-05,-3.585093509173021e-05,1.4336815183924045e-05
-8.229406375903636e-05,-4.1251903894590214e-05,-3.9912938518682495e-05,1.567312574479729e-05
-8.156864350894466e-05,-3.352850762894377e-05,-4.264895324013196e-05,1.3668489373230841e-05
-7.193156488938257e-05,-1.5065142179082613e-05,-4.1450406570220366e-05,8.483459168928675e-06
-5.98275255470071e-05,1.3714761735172942e-05,-3.5612214560387656e-05,5.062506261310773e-06
-5.407534263213165e-05,3.585202284739353e-05,-2.9033812097623013e-05,1.094411072699586e-05
-5.036274524172768e-05,4.160287062404677e-05,-2.689031134650577e-05,2.1682211809093133e-05
-4.542560054687783e-05,4.273287413525395e-05,-2.6500982130528428e-05,2.7181857149116695e-05
-4.3889052903978154e-05,4.789146623807028e-05,-2.5675599317764863e-05,2.7038362532039173e-05
-4.696037285611965e-05,5.485819565365091e-05,-2.7353640689398162e-05,2.6404122763779014e-05
-4.9082129407906905e-05,6.172828580019996e-05,-3.131792618660256e-05,2.6878973585553467e-05
-4.6227709390223026e-05,6.544269126607105e-05,-3.3385975257260725e-05,2.6330009859520942e-05
-3.9864291466074064e-05,6.642594235017896e-05,-3.341302362969145e-05,2.7937639970332384e-05
-3.594835288822651e-05,6.481458694906905e-05,-3.164977897540666e-05,2.7311572921462357e-05
-3.0025885280338116e-05,6.078032674849965e-05,-3.0365155907929875e-05,2.2819753212388605e-05
-2.9269964215927757e-05,5.579440403380431e-05,-2.588376446510665e-05,2.374888936174102e-05
-3.340732291690074e-05,4.7555266064591706e-05,-1.822277954488527e-05,2.895763100241311e-05
-3.143937647109851e-05,4.345062916399911e-05,-1.6700021660653874e-05,3.3092714147642255e-05
-2.6777339371619746e-05,4.157761941314675e-05,-2.0697247236967087e-05,3.111525438725948e-05
-2.469392893544864e-05,3.1437022698810324e-05,-2.3704231352894567e-05,2.6959074602928013e-05
-2.2017020455677994e-05,-1.5828857158339815e-06,-2.4160688553820364e-05,1.9350733055034652e-05
-1.6369973309338093e-05,-4.652565985452384e-05,-2.616490382933989e-05,1.3778195352642797e-05
-1.3089869753457606e-05,-7.845377695048228e-05,-2.9638073101523332e-05,1.171587882708991e-05
