-2.8955910238437355e-05,7.679412192374002e-06,-1.3174473679100629e-05,7.080258365022019e-05
-3.245368861826137e-05,3.5924367693951353e-05,-1.274421902053291e-05,7.031905261101201e-05
-3.500836101011373e-05,6.466449849540368e-05,-1.2780404176737648e-05,6.525141361635178e-05
-3.6294131859904155e-05,8.350759162567556e-05,-1.1204111615370493e-05,6.361729901982471e-05
-3.743526394828223e-05,9.82217097771354e-05,-5.926505764364265e-06,6.623382068937644e-05
-4.015600279672071e-05,9.51820402406156e-05,2.3573456076064758e-07,6.564550858456641e-05
-4.4260032154852524e-05,6.38948185951449e-05,6.770313234483183e-07,6.099667734815739e-05
-4.1710220102686435e-05,-8.41227938508382e-06,-2.5431156700506108e-06,5.430761302704923e-05
-3.344792276038788e-05,-8.244760101661086e-05,-4.123526196053717e-06,5.132328442414291e-05
-2.6640687792678364e-05,-9.986943769035861e-05,-2.6469472231838154e-06,5.450666503747925e-05
-2.3573746148031205e-05,-6.508408114314079e-05,-5.150227480044123e-07,6.230849248822778e-05
-2.3655471522943117e-05,-2.7709114874596708e-05,1.1692192458667705e-07,6.756309448974207e-05
-2.614952427393291e-05,-2.0511795810307376e-05,1.338962192676263e-06,6.461845623562112e-05
-2.7978772777714767e-05,-3.227030538255349e-05,2.1735547761636553e-06,5.7452445616945624e-05
-2.7263462470727973e-05,-3.135944280074909e-05,-8.667579436405504e-07,5.4566502512898296e-05
-2.5214929337380454e-05,-1.0864976502489299e-05,-6.980096259212587e-06,5.606512422673404e-05
-2.3863391106715426e-05,1.3611316717287991e-05,-9.070105079445057e-06,5.755180973210372e-05
-2.3157110263127834e-05,3.476552592474036e-05,-5.3964076869306155e-06,5.879961827304214e-05
-2.3267841243068688e-05,5.393126411945559e-05,-2.6599998363963095e-06,5.5999847972998396e-05
-2.3809445337974466e-05,6.41815786366351e-05,-5.9775470617751125e-06,4.6715798816876486e-05
-2.4633363864268176e-05,5.910565596423112e-05,-1.3589915397460572e-05,3.52575552824419e-05
-2.3822209186619148e-05,4.373511910671368e-05,-1.9272307326900773e-05,2.926111665146891e-05
-2.1089093934278935e-05,3.106076837866567e-05,-1.8633903891895898e-05,2.833800681401044e-05
-1.672804864938371e-05,3.3071148209273815e-05,-1.2697732927335892e-05,3.2251420634565875e-05
-1.5556150174234062e-05,5.167545168660581e-05,-6.698346624034457e-06,3.670514706755057e-05
-1.9033474018215202e-05,7.28577288100496e-05,-6.1440923673217185e-06,4.1034745663637295e-05
-2.10985144803999e-05,7.502370135625824e-05,-7.2026618909148965e-06,4.556154817692004e-05
-2.0899899027426727e-05,5.715634688385762e-05,-6.346089776343433e-06,4.922964217257686e-05
-2.5445502615184523e-05,2.2242435079533607e-05,-5.850728030054597e-06,5.248984234640375e-05
-3.093683335464448e-05,-1.9737866750801913e-05,-7.207261660369113e-06,5.523096479009837e-05
-3.0361949029611424e-05,-4.738715142593719e-05,-9.791118827706669e-06,5.8676287153502926e-05
-2.8227512302692048e-05,-3.862377707264386e-05,-9.077623872144613e-06,6.45821273792535e-05
-2.5937695681932382e-05,5.548986791836796e-06,-6.750969077984337e-06,6.54828836559318e-05
-2.3721891921013594e-05,5.417075226432644e-05,-4.601458840625128e-06,6.605226371902972e-05
-1.9910807168344036e-05,7.830950198695064e-05,-4.1921966840163805e-06,7.005734369158745e-05
-2.036435398622416e-05,7.673467189306393e-05,-6.046028829587158e-06,6.94936970830895e-05
-2.6482179237063974e-05,5.7779841881711036e-05,-9.40220161282923e-06,6.838412082288414e-05
-3.119958273600787e-05,3.6859939427813515e-05,-1.0449645742482971e-05,7.744877802906558e-05
-3.0406892619794235e-05,1.36856024255394e-05,-7.237359568534885e-06,8.708000677870587e-05
-2.6647578124538995e-05,-1.9803315808530897e-05,-5.709414381271927e-06,8.272517879959196e-05
-2.7649954063235782e-05,-5.858936128788628e-05,-7.2418815761921e-06,7.064836245262995e-05
-3.1540395866613835e-05,-9.352323831990361e-05,-9.654268069425598e-06,5.872736073797569e-05
-3.1252475309884176e-05,-0.00011538600665517151,-1.249591150553897e-05,5.1596176490420476e-05
-2.6778301617014222e-05,-9.548594971420243e-05,-1.3364482583710924e-05,5.2208542911102995e-05
-2.4234324882854708e-05,-2.3715059796813875e-05,-9.089099876291584e-06,5.9273432270856574e-05
-2.2450867618317716e-05,5.610933658317663e-05,-3.8477869566122536e-06,6.960463360883296e-05
-1.9326678739162162e-05,0.00011232204269617796,-3.7539780350925867e-06,8.11848949524574e-05
-1.5785515643074177e-05,0.00014634101535193622,-5.7976481002697255e-06,8.80869192769751e-05
-1.0314857718185522e-05,0.00014985523012001067,-6.578387910849415e-06,7.938822818687186e-05
-4.917696969641838e-06,0.00011397063644835725,-1.0060778549814131e-05,4.276258187019266e-05
-5.367540779843694e-06,7.489223207812756e-05,-1.768983929650858e-05,-9.910540029522963e-06
-9.244023203791585e-06,6.0248094087000936e-05,-2.8320253477431834e-05,-3.4158394555561244e-05
-1.3870472685084678e-05,6.043482790119015e-05,-3.700113302329555e-05,-9.552491064823698e-06
-1.9915789380320348e-05,7.069853745633736e-05,-3.966831718571484e-05,2.4415143343503587e-05
-2.4682229195605032e-05,9.985775977838784e-05,-4.157709554419853e-05,3.946459764847532e-05
-2.7473994123283774e-05,0.00012678159691859037,-4.283862290321849e-05,4.699953569797799e-05
-3.285950515419245e-05,0.00012386339949443936,-4.08467385568656e-05,5.1482609705999494e-05
-3.920653762179427e-05,8.975171658676118e-05,-4.005619484814815e-05,5.136166510055773e-05
-4.073344825883396e-05,3.35057447955478e-05,-4.042746149934828e-05,5.163457171875052e-05
-3.673801984405145e-05,-2.8065651349606924e-05,-3.856983676087111e-05,5.6390279496554285e-05
-3.2507767173228785e-05,-7.282754813786596e-05,-3.398921398911625e-05,6.133733404567465e-05
-3.1567291443934664e-05,-9.415248496225104e-05,-2.5220404495485127e-05,5.9191308537265286e-05
-3.255090268794447e-05,-0.00011001686652889475,-1.4987588656367734e-05,5.5596094171050936e-05
-3.3324391552014276e-05,-0.00011179062857991084,-1.079241519619245e-05,5.5121392506407574e-05
-3.1889347155811265e-05,-7.597864896524698e-05,-9.84891812549904e-06,5.957560642855242e-05
-2.8685917641269043e-05,-1.8811859263223596e-05,-6.513308562716702e-06,6.529458187287673e-05
-2.3734570277156308e-05,2.850422060873825e-05,-1.8408717323836754e-06,6.821099668741226e-05
-2.0109097022213973e-05,5.748509647673927e-05,-1.2656014405365568e-06,6.833142833784223e-05
-1.662030081206467e-05,7.75716471252963e-05,-2.3246391265274724e-06,6.722061516484246e-05
-1.1170002835569903e-05,9.529357339488342e-05,-2.227188815595582e-06,6.982290506130084e-05
-9.978054549719673e-06,0.00010262220894219354,-2.0347308691270882e-06,7.471622666344047e-05
-1.60742893058341e-05,8.92074967850931e-05,-9.178386903840874e-07,7.800978346494958e-05
-2.0187653717584908e-05,6.621816282859072e-05,2.774018184936722e-06,7.907873077783734e-05
-1.7616372133488767e-05,5.13720115122851e-05,8.6145410023164e-06,7.950106373755261e-05
-1.61294865392847e-05,4.1169343603542075e-05,1.2685028195846826e-05,7.800254388712347e-05
-2.0104240320506506e-05,2.4984345145639963e-05,9.424109521205537e-06,7.697058754274622e-05
-2.3806403987691738e-05,1.1210196134925354e-05,2.0840836896240944e-06,7.646263838978484e-05
-2.7824942662846297e-05,1.3329426110431086e-05,-1.072424311132636e-06,7.143882976379246e-05
-3.485804336378351e-05,2.8670416213572025e-05,-4.755671398015693e-06,5.8405305026099086e-05
-3.636867768364027e-05,3.6639867175836116e-05,-8.412793249590322e-06,4.9640231736702845e-05
-2.9297640139702708e-05,2.594359830254689e-05,-7.128433026082348e-06,5.314844020176679e-05
-1.898274786071852e-05,6.344038865790935e-06,-2.341480922041228e-06,5.7925910368794575e-05
-1.5189778423518874e-05,-1.1908467058674432e-05,2.0088860708256107e-07,5.599147334578447e-05
-2.0534316718112677e-05,-3.167722388752736e-05,9.747218143729697e-08,5.285342922434211e-05
-2.415128801658284e-05,-4.333450488047674e-05,-1.8432996284900582e-06,5.506835805135779e-05
-2.373557072132826e-05,-4.014735168311745e-05,-4.968194389221026e-06,5.913435961701907e-05
-2.3918681108625606e-05,-2.6112098566954955e-05,-3.4989186588063603e-06,6.072444375604391e-05
-2.358494748477824e-05,-1.202668408950558e-05,2.0231245798640884e-06,6.134368595667183e-05
-2.2183450710144825e-05,-8.001125934242737e-06,3.3579706268938025e-06,6.317772204056382e-05
-2.366882654314395e-05,3.797630597546231e-06,-9.359879413750605e-07,6.398557161446661e-05
-2.954894443973899e-05,2.0023227989440784e-05,-6.399985068128444e-06,6.412702350644395e-05
-3.722509791259654e-05,3.722588007804006e-05,-8.786420039541554e-06,6.393558578565717e-05
-3.9307826227741316e-05,4.946911576553248e-05,-7.85443262429908e-06,6.411180947907269e-05
-3.561662742868066e-05,5.068566679256037e-05,-6.5450358306407e-06,6.655101606156677e-05
-3.195052340743132e-05,4.324418478063308e-05,-7.5673742685467005e-06,7.149118755478412e-05
-2.8381418815115467e-05,2.6582003556541167e-05,-8.366153451788705e-06,7.400607137242332e-05
-2.4546325221308507e-05,-2.3104473712010076e-06,-8.049406460486352e-06,6.958041922189295e-05
-2.26296870096121e-05,-4.012816134491004e-05,-1.1226323294977192e-05,6.266380660235882e-05
-2.4191474949475378e-05,-6.334313366096467e-05,-1.6855185094755143e-05,5.846919520990923e-05
-2.5402159735676832e-05,-5.039507959736511e-05,-2.012247387028765e-05,5.6051798310363665e-05
-2.3870481527410448e-05,-1.206546676257858e-05,-1.9069786503678188e-05,5.5718010116834193e-05
-2.2241229089559056e-05,1.6107022020150907e-05,-1.682921174506191e-05,5.8502100728219375e-05
-2.5415940399398096e-05,2.1602741981041618e-05,-1.347273700957885e-05,5.895624417462386e-05
-3.086367723881267e-05,2.030018913501408e-05,-8.115844138956163e-06,5.8677225752035156e-05
-3.24778666254133e-05,3.133744394290261e-05,-4.817790795641486e-06,5.967184551991522e-05
-3.154473233735189e-05,4.5387892896542326e-05,-7.361010375461774e-06,6.084103733883239e-05
-3.38339050358627e-05,5.33788806933444e-05,-1.113925736717647e-05,6.367055175360292e-05
-3.8332724216161296e-05,6.647480768151581e-05,-1.3526105249184184e-05,6.481926538981497e-05
-3.8263726310105994e-05,9.024002065416425e-05,-1.2524862540885806e-05,6.476049748016521e-05
-3.433746314840391e-05,9.795732330530882e-05,-8.124465239234269e-06,6.647753616562113e-05
-3.1823037716094404e-05,7.26587459212169e-05,-7.530253242293838e-06,6.461004522861913e-05
-3.0737443012185395e-05,5.401138332672417e-05,-9.420929927728139e-06,5.641863026539795e-05
-2.6094583517988212e-05,6.324123387457803e-05,-1.0753026799648069e-05,5.182158201932907e-05
-2.428436346235685e-05,7.397963781841099e-05,-1.3968861821922474e-05,5.1235841965535656e-05
-2.636022327351384e-05,7.383680349448696e-05,-1.7112712157540955e-05,5.001348108635284e-05
-2.6936704671243206e-05,6.349138129735366e-05,-1.5230141798383556e-05,4.757467104354873e-05
-2.7147560103912838e-05,3.8249527278821915e-05,-1.092495131160831e-05,4.5524368033511564e-05
-2.400528137513902e-05,-2.4940131879702676e-06,-9.582967322785407e-06,4.448248728294857e-05
-2.215985114162322e-05,-3.884292164002545e-05,-1.1557872312550899e-05,4.619774699676782e-05
-2.2308275219984353e-05,-5.125811730977148e-05,-1.3842550288245548e-05,5.2152914577163756e-05
-2.2682117560179904e-05,-4.2946685425704345e-05,-1.1203649592061993e-05,5.7020384701900184e-05
-2.2795540644438006e-05,-2.7898408006876707e-05,-5.94452467339579e-06,5.892183617106639e-05
-2.3826270989957266e-05,-1.4968106370361056e-05,-5.5017194426909555e-06,5.5801541748223826e-05
-2.4346827558474615e-05,-1.0690921953937504e-05,-7.595197075715987e-06,5.30841680301819e-05
-2.303591463714838e-05,-1.7345131709589623e-05,-4.6873738028807566e-06,5.513693395187147e-05
-2.1257945263641886e-05,-2.340015817026142e-05,1.3176447737350827e-06,5.969962876406498e-05
-1.805954525480047e-05,-1.5377170711872168e-05,4.7281118895625696e-06,6.29220376140438e-05
-1.596135552972555e-05,7.71970098867314e-06,4.054269993503112e-06,6.464103353209794e-05
-1.760363556968514e-05,2.631811184983235e-05,4.177320249709737e-07,6.251811282709241e-05
-1.9093402443104424e-05,1.9367107597645372e-05,-3.431742015891359e-06,5.6542750826338306e-05
-2.1151998225832358e-05,9.991250635721372e-07,-6.644200766459107e-06,5.266881635179743e-05
-2.7057414627051912e-05,5.315411272022175e-06,-6.1840692069381475e-06,5.163444438949227e-05
-2.8236414436833e-05,3.573957656044513e-05,-2.6367151804151945e-06,5.120111381984316e-05
-2.4277362172142603e-05,7.856197044020519e-05,-3.2048974389908835e-06,4.9198737542610615e-05
-1.9711940694833174e-05,0.00011971220374107361,-1.3053994507572497e-06,4.8549907660344616e-05
-2.1561367248068564e-05,0.0001582394470460713,3.601373464334756e-06,5.135836181580089e-05
-2.846628922270611e-05,0.0001857818861026317,1.7770544502582197e-07,5.448277806863189e-05
-3.17042286042124e-05,0.00016809369844850153,-4.687451564677758e-06,5.586529732681811e-05
-2.955596755782608e-05,8.852319297147915e-05,-5.5250425248232204e-06,5.562521982938051e-05
-2.4462988221785054e-05,1.7817812477005646e-05,-2.3577556476084283e-06,5.77064129174687e-05
-2.149567626474891e-05,3.081186150666326e-05,1.5459738733625272e-06,6.26474866294302e-05
-2.2562175217899494e-05,7.098393689375371e-05,-2.8224017114553135e-06,6.359873077599332e-05
-2.535890234867111e-05,6.472947279689834e-05,-1.2812413842766546e-05,5.9562677051872015e-05
-2.8658467272180133e-05,1.8402943169348873e-05,-2.075918746413663e-05,5.531301940209232e-05
-3.1842700991546735e-05,-2.10816888284171e-05,-2.109514389303513e-05,5.42848720215261e-05
-3.2937463402049616e-05,-2.0229907022439875e-05,-1.6447738744318485e-05,5.450686876429245e-05
-3.0456667445832863e-05,6.070501058275113e-06,-1.2697452802967746e-05,5.343831435311586e-05
-2.7249981940258294e-05,2.6244666514685377e-05,-1.2067152056260966e-05,5.079247785033658e-05
-2.7786571081378497e-05,3.7044435885036364e-05,-1.2137318663008045e-05,5.2769821195397526e-05
-3.114451465080492e-05,4.257571345078759e-05,-1.0487598956387956e-05,5.6116357882274315e-05
-3.167239628965035e-05,4.560869638225995e-05,-9.183061592921149e-06,5.55591395823285e-05
-2.8274407668504864e-05,6.0307120293146e-05,-1.209490164910676e-05,5.430688906926662e-05
-2.5206549253198318e-05,8.635698031866923e-05,-1.8644124793354422e-05,5.657465226249769e-05
-2.7773308829637244e-05,0.00010280001879436895,-2.2621086827712134e-05,6.179149204399437e-05
-3.326217120047659e-05,0.00010051368735730648,-1.999613414227497e-05,6.42892555333674e-05
-3.5823919461108744e-05,9.272827446693555e-05,-1.3132937965565361e-05,6.19278071098961e-05
-3.524146814015694e-05,8.001434616744518e-05,-9.699755537440069e-06,6.07024303462822e-05
-3.16240984830074e-05,5.778359991381876e-05,-1.0318726708646864e-05,6.397793185897171e-05
-2.8888287488371134e-05,2.6499394152779132e-05,-8.553502993891016e-06,6.67834683554247e-05
-3.053470572922379e-05,-1.101906946132658e-05,-2.622173269628547e-06,6.95894195814617e-05
-3.3503383747301996e-05,-3.576091694412753e-05,1.8683297184907133e-06,7.26862417650409e-05
-3.3936459658434615e-05,-3.698623913805932e-05,-9.81231892183132e-07,6.955861317692325e-05
-3.1871320970822126e-05,-2.3579608750878833e-05,-9.160422450804617e-06,6.071846655686386e-05
-3.0180695830495097e-05,-1.403057285642717e-05,-1.1886834727192763e-05,6.0111586208222434e-05
-3.002209632541053e-05,-1.1713459571183193e-05,-7.03831210557837e-06,6.50031870463863e-05
-2.9526374419219792e-05,-5.639041319227545e-06,-4.34227695222944e-06,6.806705641793087e-05
-3.0076587790972553e-05,-1.5677546798542608e-06,-6.763571491319453e-06,6.858564302092418e-05
-2.8128422854933888e-05,-4.775034994963789e-06,-1.098478060157504e-05,6.765234138583764e-05
-2.4268929337267764e-05,-1.7015550838550553e-05,-1.4492828995571472e-05,6.374887016136199e-05
-2.524252704461105e-05,-3.738749728654511e-05,-1.3556058547692373e-05,5.791602598037571e-05
-2.976672476506792e-05,-5.468279050546698e-05,-1.1258756785537116e-05,5.449066884466447e-05
-2.872665208997205e-05,-5.714527651434764e-05,-1.172420525108464e-05,5.048527236795053e-05
-2.2153762984089553e-05,-4.5968889025971293e-05,-1.6278923794743605e-05,4.8561752919340506e-05
-1.811277434171643e-05,-3.433232268434949e-05,-2.1945457774563693e-05,4.823749986826442e-05
-1.8555487258709036e-05,-3.999422915512696e-05,-2.545408824516926e-05,5.212772884988226e-05
-2.1023868612246588e-05,-6.187567487359047e-05,-2.565265640441794e-05,5.864707054570317e-05
-2.3004578906693496e-05,-7.80723275966011e-05,-2.199923255830072e-05,6.203016528161243e-05
-2.2063128199079074e-05,-7.432696293108165e-05,-1.67962207342498e-05,6.234691682038829e-05
-1.854065340012312e-05,-5.098943074699491e-05,-1.3540357940655667e-05,6.486249912995845e-05
-1.9439841707935557e-05,-1.6240834156633355e-05,-1.0986307643179316e-05,6.56209303997457e-05
-2.562056397437118e-05,2.079031582979951e-05,-5.512983079825062e-06,6.171007407829165e-05
-2.8346246836008504e-05,5.534388037631288e-05,-4.463495770323789e-06,5.934473665547557e-05
-2.5228535378118977e-05,8.730330591788515e-05,-1.1314150469843298e-05,6.029965152265504e-05
-2.4884931917767972e-05,0.00010842756455531344,-1.5294011973310262e-05,6.072183168726042e-05
-2.473361928423401e-05,0.00012550040264613926,-1.2563522432174068e-05,5.847149441251531e-05
-2.10645030165324e-05,0.00013433639833237976,-1.081892060028622e-05,5.992719161440618e-05
-2.0963187125744298e-05,0.00012636145402211696,-1.2683612112596165e-05,6.028689313097857e-05
-2.161296652047895e-05,0.00011518071551108733,-1.2450658687157556e-05,5.477984814206138e-05
-2.1062664018245414e-05,9.516809222986922e-05,-7.4094682531722356e-06,5.060839612269774e-05
-2.3806536773918197e-05,5.235580465523526e-05,-5.5901568885019515e-06,5.363348827813752e-05
-2.9179323973949067e-05,-1.1869870832015295e-05,-8.85064491740195e-06,5.7715460570761934e-05
-3.1324252631748095e-05,-7.513866876251996e-05,-1.3979795767227188e-05,5.5843185691628605e-05
-3.0269507988123223e-05,-9.159149340121076e-05,-1.9136159608024172e-05,5.256701115285978e-05
-2.6847368644666858e-05,-5.204324043006636e-05,-1.868621984613128e-05,5.4203243053052574e-05
-2.3206855985336006e-05,-3.749354164028773e-06,-1.4111926248006057e-05,5.8327401347924024e-05
-2.276537816214841e-05,2.205242526542861e-05,-1.374955172650516e-05,6.114757707109675e-05
-1.979346234293189e-05,2.8130023565609008e-05,-1.84383025043644e-05,5.961506758467294e-05
-1.734918259899132e-05,3.30240472976584e-05,-2.674636743904557e-05,5.626476195175201e-05
-1.9682152924360707e-05,4.764905679621734e-05,-3.1359017157228664e-05,5.364833486964926e-05
-2.4848332031979226e-05,7.663273572688922e-05,-2.9247546990518458e-05,5.4330270359059796e-05
-2.6537576559348963e-05,9.733239858178422e-05,-2.58236668742029e-05,5.6120661611203104e-05
-2.388239408901427e-05,8.737452299101278e-05,-2.3187936676549725e-05,5.7014742196770385e-05
-2.0817051336052828e-05,6.85304039507173e-05,-1.679230626905337e-05,5.923918797634542e-05
-1.944035648193676e-05,5.810593575006351e-05,-5.461480213853065e-06,5.997165499138646e-05
-2.1674934032489546e-05,4.064045424456708e-05,2.020416332015884e-06,5.463817433337681e-05
-2.7564592528506182e-05,1.4467724213318434e-05,2.553098511270946e-06,4.738557981909253e-05
-3.1722491257824004e-05,-8.876147148839664e-06,2.6805296329257544e-06,4.555642226478085e-05
-3.020498843397945e-05,-3.560794357326813e-05,7.558923698525177e-06,4.8872829211177304e-05
-3.0193503334885463e-05,-5.627047357847914e-05,1.1901536709046923e-05,5.388783029047772e-05
-3.28273672494106e-05,-4.795851418748498e-05,8.70079475134844e-06,5.602137389359996e-05
-3.363897849339992e-05,-1.0113270036526956e-05,8.182277611012978e-07,5.636018977384083e-05
-3.085780190303922e-05,4.5755419705528766e-05,-1.7674466334938188e-06,5.745766975451261e-05
-2.6665338737075217e-05,0.00010634376667439938,2.5208552756339486e-07,5.922992204432376e-05
-2.1736319467891008e-05,0.00014932495832908899,3.006890665346873e-06,6.254461914068088e-05
-1.6157464415300637e-05,0.0001864855585154146,4.957837518304586e-06,6.747824227204546e-05
-8.581183465139475e-06,0.00022420585446525365,4.790237198903924e-06,6.715732888551429e-05
-4.126886324229417e-06,0.00020222207240294665,2.613173819554504e-06,6.507125362986699e-05
-1.2571013940032572e-05,8.154131501214579e-05,1.0201180202784599e-06,6.48902787361294e-05
-2.5418186851311475e-05,-6.770326581317931e-05,1.84173973138968e-06,6.472168024629354e-05
-3.4364667953923345e-05,-0.00014360289787873626,3.1084716738405405e-06,6.484260666184127e-05
-3.8241021684370935e-05,-0.0001316349080298096,4.839819212065777e-07,6.157023744890466e-05
-3.851578730973415e-05,-9.016457624966279e-05,-7.841724254831206e-06,5.564769162447192e-05
-3.8237179978750646e-05,-5.562228398048319e-05,-1.3476585991156753e-05,5.1630166126415133e-05
-3.5058677894994617e-05,-2.3657528799958527e-05,-1.3296908946358599e-05,5.105674426886253e-05
-3.181418651365675e-05,6.845139523647958e-06,-8.890394383342937e-06,5.023607809562236e-05
-2.8394822948030196e-05,2.328257505723741e-05,-5.359552233130671e-06,4.6508088416885585e-05
-2.420658347546123e-05,3.2927971915341914e-05,-7.3682340371306054e-06,4.209113831166178e-05
-2.3876082195783965e-05,4.655413067666814e-05,-7.836441000108607e-06,4.122223617741838e-05
-2.5515286324662156e-05,5.8256660850020126e-05,-7.664547410968225e-06,4.7045501560205594e-05
-2.6133535357075743e-05,5.594640242634341e-05,-1.2467176929931156e-05,5.5075681302696466e-05
-2.7632628189167008e-05,4.5660541218239814e-05,-2.009376294154208e-05,5.8300869568483904e-05
-2.9413702577585354e-05,3.9174170524347574e-05,-2.521872920624446e-05,5.590191358351149e-05
-2.8963979275431484e-05,3.950490281567909e-05,-2.627631874929648e-05,5.461474211188033e-05
-2.5887145966407843e-05,3.881463271682151e-05,-2.5353499950142577e-05,5.536034223041497e-05
-2.1809639292769134e-05,2.6768160751089454e-05,-2.335063436476048e-05,5.6209839385701343e-05
-1.8062029994325712e-05,1.0318210115656257e-05,-2.1284646209096536e-05,5.614562178379856e-05
-1.4445927263295744e-05,8.957739737525117e-06,-2.0359770132927224e-05,5.4001084208721295e-05
-1.0366517926740926e-05,3.2599720725556836e-05,-1.6609048543614335e-05,5.197212522034533e-05
-8.525010343873873e-06,6.37634948361665e-05,-7.769585863570683e-06,5.1460468966979533e-05
-8.841658200253733e-06,7.407872908515856e-05,-1.4567954167432617e-06,5.223884727456607e-05
-1.2821420568798203e-05,6.353083881549537e-05,-2.656179276527837e-06,5.450870230561122e-05
-1.7359348930767737e-05,6.42597588011995e-05,-6.361988198477775e-06,6.0572216170839965e-05
-1.9107745174551383e-05,7.615693903062493e-05,-7.641977390449028e-06,6.715226481901482e-05
-1.747310670907609e-05,7.351503882091492e-05,-6.350391231535468e-06,6.94824120728299e-05
-1.0959551218547858e-05,5.908935781917535e-05,-3.296326440249686e-06,7.170032768044621e-05
-8.02923932496924e-06,3.590071355574764e-05,-1.8302806665815297e-06,7.275126699823886e-05
-1.3286151443026029e-05,-5.377702109399252e-06,-5.481384960148716e-06,6.74302427796647e-05
-2.682628655747976e-05,-5.825277548865415e-05,-1.0622162335494068e-05,5.937744572293013e-05
-3.532948176143691e-05,-0.00010408889647806063,-1.3042462342127692e-05,5.3969324653735384e-05
-3.245628977310844e-05,-0.00011903075210284442,-1.5272597011062317e-05,5.618031354970299e-05
-2.5385243134223856e-05,-0.00010509301500860602,-1.619984323042445e-05,6.142891652416438e-05
-2.0406776457093656e-05,-7.95652813394554e-05,-1.5869685739744455e-05,6.679607758997008e-05
-1.7239830413018353e-05,-6.753687921445817e-05,-1.4431256204261445e-05,6.994845898589119e-05
-1.9252769561717287e-05,-5.4699914471711963e-05,-1.4282178199209739e-05,6.929078517714515e-05
-2.669105560926255e-05,-2.5011315301526338e-05,-1.3635394680022728e-05,6.75432602292858e-05
-3.0074916139710695e-05,1.8391843923382112e-06,-1.0097907761519309e-05,6.634851888520643e-05
-3.018484676431399e-05,1.164647869700275e-06,-7.191666554717813e-06,6.911806849529967e-05
-2.9774642825941555e-05,-1.2143716048740316e-05,-7.97967459220672e-06,7.105876284185797e-05
-2.9836744943168014e-05,-1.3002592822886072e-05,-1.1036700016120449e-05,6.821488932473585e-05
-3.006230508617591e-05,6.267407115956303e-06,-1.1225103662582114e-05,6.380159902619198e-05
-3.2062333048088476e-05,4.607383016264066e-05,-8.157767297234386e-06,6.202499207574874e-05
-3.3219868782907724e-05,8.596805855631828e-05,-4.786522367794532e-06,6.362362910294905e-05
-3.1839146686252207e-05,0.00010862884664675221,-7.3288051680719946e-06,6.728625157848e-05
-3.078222289332189e-05,0.00011436666682129726,-1.5067624190123752e-05,6.78525393595919e-05
-3.000715878442861e-05,0.00011717099550878629,-2.1764271878055297e-05,6.20170176262036e-05
-2.5314126105513424e-05,0.00011949789768550545,-2.3605673050042242e-05,5.910175241297111e-05
-1.9469578546704724e-05,0.00012215835158713162,-2.026905531238299e-05,6.235181353986263e-05
-1.3044987099419814e-05,0.00012203525693621486,-1.4079684660828207e-05,6.485427002189681e-05
-7.199841093097348e-06,0.00011376988550182432,-1.2792267625627574e-05,6.109473179094493e-05
-9.734867489896715e-06,9.386143210576847e-05,-2.0835475879721344e-05,5.144214446772821e-05
-1.7861992091638967e-05,6.2292703660205e-05,-2.8400050723575987e-05,4.8891277401708066e-05
-2.395993215031922e-05,8.18064836494159e-06,-2.4506314730388112e-05,5.250601316220127e-05
-2.6868359782383777e-05,-4.9764221330406144e-05,-1.7243182810489088e-05,5.46082628716249e-05
-2.8296626624069177e-05,-7.737944542896003e-05,-1.3739903806708753e-05,5.398608846007846e-05
-2.9070513846818358e-05,-5.469597817864269e-05,-1.0956849109788891e-05,4.913149678031914e-05
-2.876073085644748e-05,-8.381803127122112e-06,-7.993442523002159e-06,4.947305569658056e-05
-2.7119614969706163e-05,1.1678819646476768e-05,-2.1777250367449597e-06,5.3128307627048343e-05
-2.3696622520219535e-05,4.56210318589001e-06,1.9954566141677788e-06,5.614088513539173e-05
-2.1159055904718116e-05,-4.143924797972431e-06,1.5717786254754174e-06,5.801481529488228e-05
-2.340574428671971e-05,-8.681323606651858e-07,-8.948037475420278e-07,5.6594290072098374e-05
-2.9211081709945574e-05,2.2533604351338e-05,-3.0126955152809387e-06,5.612401582766324e-05
-3.541519254213199e-05,5.102375871501863e-05,-3.9646301956963725e-06,5.740695996792056e-05
-3.742033368325792e-05,5.78981707803905e-05,-5.252785285847494e-06,5.892381159355864e-05
-3.501810715533793e-05,4.383513078209944e-05,-5.35714571014978e-06,6.222738738870248e-05
-3.063047188334167e-05,3.730401658685878e-05,-3.140854460070841e-06,6.729125743731856e-05
-2.6912366593023762e-05,5.947096724412404e-05,2.1685916635760805e-06,7.022657518973574e-05
-2.7292951926938258e-05,9.570566908223554e-05,5.787060217699036e-06,7.17043731128797e-05
-3.184361048624851e-05,0.00011682798503898084,3.267877445978229e-06,7.186680159065872e-05
-3.130036930087954e-05,0.0001070200014510192,-2.1887331058678683e-06,6.938102160347626e-05
-2.343207597732544e-05,7.765760528855026e-05,-7.206002919701859e-06,6.367631431203336e-05
-1.9660843463498168e-05,5.2866940677631646e-05,-1.2727950888802297e-05,5.864673585165292e-05
-2.4951346858870238e-05,4.4328931835480034e-05,-1.6659907487337478e-05,5.658495501847938e-05
-3.140146873192862e-05,3.813797957263887e-05,-1.8348473531659693e-05,5.493251228472218e-05
-3.096193540841341e-05,1.3153433428669814e-05,-2.159632640541531e-05,5.19171662745066e-05
-2.9104570785420947e-05,-3.4153879823861644e-05,-2.2392474420485087e-05,4.696636460721493e-05
-3.469719013082795e-05,-6.556256266776472e-05,-1.9558501662686467e-05,4.5924756705062464e-05
-3.8217229302972555e-05,-5.633150431094691e-05,-1.7829492207965814e-05,4.853925929637626e-05
-3.5970049793832004e-05,-2.7984919142909348e-05,-1.7478521840530448e-05,4.793443440576084e-05
-3.8364396459655836e-05,-1.4905197531334125e-05,-1.6602702089585364e-05,4.633660864783451e-05
-4.091413211426698e-05,-1.213126233778894e-05,-1.9019775209017098e-05,4.66323435830418e-05
-3.905889025190845e-05,-2.0676932763308287e-05,-2.379308716626838e-05,4.462182550923899e-05
-3.4562322980491444e-05,-4.82654977531638e-05,-2.509103433112614e-05,4.5926357415737584e-05
-2.892378506658133e-05,-5.063402932137251e-05,-2.2804404579801485e-05,5.143638918525539e-05
-2.582216438895557e-05,-7.912001819931902e-06,-1.9824392438749783e-05,5.318485636962578e-05
-2.5578574422979727e-05,5.081375638837926e-05,-1.9770539438468404e-05,5.210847666603513e-05
-2.7112360839964822e-05,8.727514068596065e-05,-2.141866207239218e-05,4.842422276851721e-05
-2.752960062935017e-05,9.543071791995317e-05,-2.2755701138521545e-05,4.4246258767088875e-05
-2.8208021831233054e-05,8.992591756395996e-05,-2.3906712158350274e-05,4.260347850504331e-05
-2.9824101147823967e-05,6.870443758089095e-05,-2.3662518287892453e-05,4.5545908506028354e-05
-3.0454104489763267e-05,2.5971738068619743e-05,-1.8658347471500747e-05,5.000292730983347e-05
-3.0207975214580074e-05,-1.5252072444127407e-05,-1.03547572507523e-05,5.224728010944091e-05
-2.833053622453008e-05,-2.594663601485081e-05,-3.567219437172753e-06,5.417998181656003e-05
-2.6748653908725828e-05,-1.0182119694945868e-05,2.8702347165676656e-08,5.731184137403034e-05
-2.5361337975482456e-05,1.2656931176024955e-05,-6.27993813395733e-07,6.0392263549147174e-05
-2.4247301553259604e-05,2.5483681383775547e-05,-2.556830622779671e-06,6.216648034751415e-05
-2.340201535844244e-05,2.5816827474045567e-05,-3.685453862090071e-07,6.477416900452226e-05
-2.3348071408690885e-05,2.619755468913354e-05,4.49833851234871e-06,6.56645861454308e-05
-2.4229635528172366e-05,3.641203511506319e-05,4.455554972082609e-06,6.458701682277024e-05
-2.5927281967597082e-05,4.347045978647657e-05,-7.209403634078626e-07,6.667215347988531e-05
-2.618008693389129e-05,4.1037725168280303e-05,-4.185145826340886e-06,7.162047404563054e-05
-2.280464286741335e-05,3.768556780414656e-05,-3.0465962481684983e-06,7.453806756529957e-05
-2.171695996366907e-05,3.341017145430669e-05,-9.290663882666195e-08,7.693713996559381e-05
-2.3585307644680142e-05,3.330143590574153e-05,1.6549784049857408e-06,8.028101728996262e-05
-2.4370554456254467e-05,4.065373650519177e-05,1.0791894737849361e-06,7.925437967060134e-05
-2.3462633180315606e-05,5.619832154479809e-05,7.992152006863762e-08,7.685578020755202e-05
-2.09847330552293e-05,7.873766298871487e-05,7.661099630240642e-07,7.523014937760308e-05
-2.04756943276152e-05,8.651652751723304e-05,1.168986045740894e-06,7.276328688021749e-05
-2.2812811948824674e-05,7.905633538030088e-05,1.642818347136199e-06,7.118855864973739e-05
-2.3980153855518438e-05,6.549070531036705e-05,1.7198447039845632e-06,6.974170537432656e-05
-2.110261448251549e-05,3.78969416487962e-05,-3.666537295998751e-08,7.087129051797092e-05
-1.8427825125399977e-05,2.5198869479936548e-06,-1.4107006336416816e-06,7.346134225372225e-05
-2.0336148736532778e-05,-2.8627036954276264e-05,-6.183289315231377e-06,7.080805517034605e-05
-2.5261591872549616e-05,-5.703553688363172e-05,-1.308372156927362e-05,6.326463335426524e-05
-2.8029866371070966e-05,-8.423823601333424e-05,-2.0282515833969228e-05,5.823393803439103e-05
-2.832438622135669e-05,-9.341179247712716e-05,-2.549220334913116e-05,5.744605732616037e-05
-2.7717485863831826e-05,-7.440135232172906e-05,-2.574937025201507e-05,5.8077781432075426e-05
-2.7460358978714794e-05,-3.8157322705956176e-05,-2.441637116135098e-05,5.89068622502964e-05
-2.8066897357348353e-05,-6.616121936531272e-06,-2.3330558178713545e-05,5.985023017274216e-05
-2.814167419273872e-05,1.3404277524386998e-05,-2.0815341486013494e-05,6.0851991293020546e-05
-2.9913309845142066e-05,3.2168500183615834e-05,-1.6920961570576765e-05,6.293438491411507e-05
-3.380001726327464e-05,5.200930536375381e-05,-1.5369565517175943e-05,6.702383689116687e-05
-3.468085560598411e-05,5.975499516353011e-05,-1.5502908354392275e-05,6.952296098461375e-05
-2.871280230465345e-05,4.838996392209083e-05,-1.660599809838459e-05,6.721783574903384e-05
-2.4025808670558035e-05,2.775286338874139e-05,-1.685642018856015e-05,6.315314385574311e-05
-2.6779713152791373e-05,1.512638118583709e-05,-1.700711618468631e-05,6.109708192525432e-05
-3.198608465027064e-05,7.976114829943981e-06,-1.939966568897944e-05,5.795387551188469e-05
-3.385819945833646e-05,-4.317634193284903e-06,-1.856733433669433e-05,5.396099732024595e-05
-3.071045648539439e-05,-6.815661436121445e-06,-1.1620566510828212e-05,5.616092312266119e-05
-2.5412129616597667e-05,5.655317181663122e-06,-6.949866929062409e-06,6.489305815193802e-05
-2.0164830857538618e-05,2.04272164410213e-05,-5.191968739381991e-06,7.201216067187488e-05
-1.639021502342075e-05,4.7350771637866274e-05,-4.8992674237524625e-06,7.075274334056303e-05
-1.9072320355917327e-05,8.625716873211786e-05,-6.301835583144566e-06,6.162120553199202e-05
-2.2584286853088997e-05,0.0001147739021689631,-4.782434643857414e-06,5.4497428209288046e-05
-2.210422644566279e-05,0.00012406775203999132,-8.959202659752918e-07,4.992361937183887e-05
-2.4471202777931467e-05,0.00010827967344084755,8.692393862475001e-07,5.090678678243421e-05
-3.03795332001755e-05,7.8881777881179e-05,-4.94973392051179e-07,5.338318442227319e-05
-3.402067522983998e-05,5.0203187129227445e-05,-6.735857596140704e-07,4.980648373020813e-05
-3.392037615412846e-05,1.8790236936183646e-05,-1.0715812095440924e-06,5.196622078074142e-05
-3.091277176281437e-05,5.0042549446516205e-06,-4.4414914555090945e-06,5.617564602289349e-05
-2.8631635359488428e-05,2.2470074327429757e-05,-5.14659404871054e-06,5.477176819113083e-05
-2.609830153232906e-05,4.951517257723026e-05,-4.035262918478111e-06,4.8657322622602805e-05
-2.1142055629752576e-05,6.775456859031692e-05,-5.911228072363883e-06,4.354918564786203e-05
-1.737580714689102e-05,5.839446748723276e-05,-9.469549695495516e-06,4.38568094978109e-05
-1.8083408576785587e-05,1.4439504411711823e-05,-1.1731003723980393e-05,4.9661997763905674e-05
-2.022466105700005e-05,-3.419004860916175e-05,-1.1215692211408168e-05,5.556556789088063e-05
-2.2220337996259332e-05,-4.7338675358332694e-05,-8.941287887864746e-06,5.486278314492665e-05
-2.511330421839375e-05,-3.649916106951423e-05,-8.480606993543915e-06,4.972643364453688e-05
-2.8258627935429104e-05,-3.23949170706328e-05,-1.0630546967149712e-05,4.758007708005607e-05
-3.031702544831205e-05,-3.5827059036819264e-05,-1.2566650184453465e-05,5.2464150940068066e-05
-2.8381504307617433e-05,-3.251405360060744e-05,-1.283738856727723e-05,6.0259764723014086e-05
-2.461427720845677e-05,-1.8141759937861934e-05,-1.2023694580420852e-05,6.304031558101997e-05
-2.4450206183246337e-05,3.4888597610915895e-07,-1.1457645996415522e-05,5.928461905568838e-05
-2.691820918698795e-05,1.8255386748933233e-05,-1.0690346243791282e-05,5.523635263671167e-05
-2.4299539290950634e-05,3.384717638255097e-05,-1.114648603106616e-05,5.498837708728388e-05
-1.9596252968767658e-05,4.638510290533304e-05,-1.0896608728216961e-05,5.348379272618331e-05
-1.863549005065579e-05,5.381232040235773e-05,-1.043918473442318e-05,4.992376489099115e-05
-2.1493107851711102e-05,6.061031308490783e-05,-1.2355420039966702e-05,5.0111983000533655e-05
-2.521797432564199e-05,5.931182749918662e-05,-1.7163487427751534e-05,5.0262442528037354e-05
-2.6052810426335782e-05,3.813936928054318e-05,-2.176444832002744e-05,5.185751069802791e-05
-2.4847160602803342e-05,1.8192247807746753e-05,-1.9666162188514136e-05,5.219406011747196e-05
-2.4605116777820513e-05,1.4229663065634668e-05,-1.664732553763315e-05,5.295015580486506e-05
-2.4961096642073244e-05,1.7700187527225353e-05,-1.7504713468952104e-05,5.2370749472174793e-05
-2.430301537970081e-05,3.39403522957582e-05,-1.788264671631623e-05,4.910535426461138e-05
-2.4811992261675186e-05,5.655267523252405e-05,-1.4913242921466008e-05,5.039591997046955e-05
-3.0478628104901873e-05,6.137581658549607e-05,-1.0174187991651706e-05,5.425368726719171e-05
-3.533987546688877e-05,5.213508120505139e-05,-5.211925326875644e-06,5.4876352805877104e-05
-3.519178062560968e-05,5.0358248699922115e-05,-3.364878239153768e-06,5.2768082241527736e-05
-3.279773227404803e-05,4.3902335164602846e-05,-2.9140187507437076e-06,5.462484841700643e-05
-3.369518162799068e-05,2.1964844563626684e-05,-3.075541144426097e-06,5.6425193179165944e-05
-3.636362453107722e-05,-5.29363751411438e-06,-5.266359494271455e-06,5.640291055897251e-05
-3.592486245906912e-05,-2.083823892462533e-05,-5.228965619608061e-06,5.5410313507309183e-05
-3.2395309972343966e-05,-1.301807878917316e-05,-3.96472614738741e-06,5.516662713489495e-05
-2.744432094914373e-05,1.3578362086263951e-05,-2.0353236607206782e-07,5.6137760111596435e-05
-2.4230384951806627e-05,3.6266810639062896e-05,2.814098706949153e-06,5.6205357395811006e-05
-2.5647736038081348e-05,4.41595766460523e-05,1.0941178061329992e-06,5.322114520822652e-05
-3.099439345533028e-05,4.3293297494528815e-05,-4.017563242086908e-06,4.7808112867642194e-05
-3.23215608659666e-05,4.194869688944891e-05,-5.046376827522181e-06,4.469706254894845e-05
-2.6671510568121448e-05,4.7928599087754264e-05,-1.4712938991578994e-06,4.494218228501268e-05
-1.9852019249810837e-05,6.689693691441789e-05,1.5223187119772774e-06,4.587108560372144e-05
-1.8902846932178363e-05,8.358120976481587e-05,1.6343376501026796e-06,4.6162364014890045e-05
-1.9036164303543046e-05,8.399001671932638e-05,6.195022024257923e-07,4.9032256356440485e-05
-1.3673170542460866e-05,8.28307238407433e-05,7.688611844969273e-07,5.6140488595701754e-05
-1.2751882422890048e-05,8.399058424402028e-05,4.048870607675781e-07,6.0792812291765586e-05
-2.1055229808553122e-05,7.16530266799964e-05,-4.000251919933362e-06,5.8144429203821346e-05
-2.8406640922185034e-05,1.741110645525623e-05,-9.66862262430368e-06,4.959652869729325e-05
-3.4716256777755916e-05,-5.086819874122739e-05,-1.3236680388217792e-05,4.128889850107953e-05
-3.6534169339574873e-05,-5.3102561651030555e-05,-1.2551120562420692e-05,3.9562761230627075e-05
-3.4386008337605745e-05,-7.074106179061346e-06,-6.895907517900923e-06,4.209766848362051e-05
-3.1202453101286665e-05,-5.171478278498398e-06,-4.791114406543784e-06,4.745944534079172e-05
-2.370513539062813e-05,-5.029160820413381e-05,-5.214124939811882e-06,5.1489936595316976e-05
-1.86440629477147e-05,-8.225178316934034e-05,-6.147249223431572e-06,5.621334639727138e-05
-1.9596600395743735e-05,-7.111416925908998e-05,-4.7920971155690495e-06,5.898846575291827e-05
-2.2970869395066984e-05,-3.647857010946609e-05,-3.502716708680964e-06,5.733987927669659e-05
-2.363339990552049e-05,1.3483021348292823e-06,-4.390774392959429e-06,5.584450627793558e-05
-2.1529043806367554e-05,2.7627605959423818e-05,-7.597931471536867e-06,5.3512005251832306e-05
-1.9931312635890208e-05,4.218450339976698e-05,-9.105730896408204e-06,5.498694736161269e-05
-1.8088834622176364e-05,6.132115231594071e-05,-9.35015850700438e-06,5.73968754906673e-05
-1.437199807696743e-05,9.048659558175132e-05,-8.531722414772958e-06,5.732521822210401e-05
-1.1151296348543838e-05,0.00010510568245081231,-7.110819296940463e-06,5.6043805670924485e-05
-1.2764745406457223e-05,7.364425255218521e-05,-9.267958375858143e-06,5.163457535672933e-05
-1.7803706214181148e-05,1.2099776540708262e-05,-1.159554176410893e-05,4.5512231736211106e-05
-2.1008507246733643e-05,-2.823591603373643e-05,-1.0254896551487036e-05,4.840761539526284e-05
-2.053839671134483e-05,-2.9597142201964743e-05,-6.128948825789848e-06,5.700765905203298e-05
-1.8782478946377523e-05,-1.551521199871786e-05,-5.386472366808448e-06,6.268444849411026e-05
-2.0690904420916922e-05,-2.530345454943017e-06,-9.151779522653669e-06,6.2795021221973e-05
-2.6573352442937903e-05,5.722180503653362e-06,-1.1357303264958318e-05,5.695470099453814e-05
-3.078670852119103e-05,1.4354153790918645e-05,-5.504239652509568e-06,5.1258459279779345e-05
-3.135449151159264e-05,2.214484629803337e-05,5.713197310797113e-07,5.1863469707313925e-05
-2.782087176456116e-05,2.5168159481836483e-05,2.67517378915727e-07,5.536110620596446e-05
-2.7457650503492914e-05,1.6732477888581343e-05,-7.871303751016967e-06,5.5105654610088095e-05
-2.8967513571842574e-05,7.620041287736967e-06,-1.5536217688350007e-05,5.555184179684147e-05
-2.162111377401743e-05,5.295006303640548e-06,-1.817627162381541e-05,5.8368230384076014e-05
-1.5236803847074043e-05,-1.3546106856665574e-05,-2.2720319975633174e-05,6.136811862234026e-05
-1.9147795683238655e-05,-2.6940033421851695e-05,-2.520504676795099e-05,6.591280543943867e-05
-2.5578679924365133e-05,6.970041795284487e-06,-2.3747254090267234e-05,7.001839549047872e-05
-2.498999128874857e-05,5.225053973845206e-05,-2.5200612071785145e-05,6.953306001378223e-05
-2.3047337890602648e-05,6.015250983182341e-05,-2.9560229449998587e-05,6.46249100100249e-05
-2.6171323042945005e-05,3.7723784771515056e-05,-3.023282806680072e-05,5.659172165906057e-05
-3.026145714102313e-05,2.0187375412206165e-05,-2.7240159397479147e-05,5.4593685490544885e-05
-2.931533890659921e-05,3.149653275613673e-05,-2.419005977571942e-05,5.739250991609879e-05
-2.5797175112529658e-05,6.482285243691877e-05,-2.3270666133612394e-05,6.207737897057086e-05
-2.4504162865923718e-05,7.987592107383534e-05,-2.416690404061228e-05,6.696577474940568e-05
-2.4861008569132537e-05,6.206633406691253e-05,-2.3377897377940826e-05,6.863964517833665e-05
-2.5887084120768122e-05,2.7274236344965175e-05,-1.9415714632486925e-05,6.64462786517106e-05
-2.8102334908908233e-05,-3.1196379950415576e-06,-1.4784674931433983e-05,6.390047201421112e-05
-3.0205537768779323e-05,-1.3003426602153922e-06,-1.2834198059863411e-05,6.709204171784222e-05
-3.0237939427024685e-05,3.156690945615992e-05,-1.1290155271126423e-05,7.387014920823276e-05
-3.0431152481469326e-05,6.53692040941678e-05,-9.02784177014837e-06,7.756870036246255e-05
-3.266548446845263e-05,8.523667929694057e-05,-7.728382115601562e-06,7.658097456442192e-05
-3.6026525776833296e-05,9.841476276051253e-05,-7.2833609010558575e-06,7.467286195605993e-05
-3.668688077596016e-05,0.00011723596981028095,-4.3504669520189054e-06,7.205543806776404e-05
-3.4342025173828006e-05,0.00014812490553595126,1.8597473854242708e-06,6.702817336190492e-05
-3.1980562198441476e-05,0.0001626174052944407,5.08723587699933e-06,6.410656351363286e-05
-3.471087256912142e-05,0.00012680624786298722,1.528748043710948e-06,6.845682219136506e-05
-3.9830127207096666e-05,5.4282350902212784e-05,-6.748336090822704e-06,7.236076635308564e-05
-4.062174411956221e-05,-1.6566356862313114e-05,-1.4152322364680003e-05,7.061666838126257e-05
-3.9798407669877633e-05,-5.105599484522827e-05,-1.659632835071534e-05,6.651107833022252e-05
-4.1207946196664125e-05,-4.480856659938581e-05,-1.5317411452997476e-05,6.532546103699133e-05
-3.91756730095949e-05,-3.0780411179875955e-05,-1.4934305909264367e-05,6.776273949071765e-05
-3.2955016649793833e-05,-4.002655259682797e-05,-1.8689701391849667e-05,7.105530676199123e-05
-2.9736480428255163e-05,-8.547481411369517e-05,-2.3391799913952127e-05,7.320372242247686e-05
-2.7894076993106864e-05,-0.00012309574231039733,-2.5627157810959034e-05,7.156661013141274e-05
-2.5575573090463877e-05,-9.786132432054728e-05,-2.4364038836210966e-05,6.633097655139863e-05
-2.705629049160052e-05,-3.743978959391825e-05,-2.066722845484037e-05,6.261423550313339e-05
-3.0021632483112626e-05,6.8103850026091095e-06,-1.546030216559302e-05,5.949865953880362e-05
-2.8720030968543142e-05,3.216394179617055e-05,-7.848681889299769e-06,5.865351340617053e-05
-2.3257929569808766e-05,5.826458436786197e-05,-1.080538822861854e-06,6.224020762601867e-05
-1.6718478946131654e-05,0.00010419516183901578,4.776607511303155e-06,6.714709888910875e-05
-1.1687954611261375e-05,0.00016254627553280443,1.1410438673919998e-05,7.078080670908093e-05
-8.192453606170602e-06,0.0002088452165480703,1.6728770788176917e-05,7.25965146557428e-05
-8.932994205679279e-06,0.0002076029049931094,1.3519725143851247e-05,6.993280840106308e-05
-1.3499954548024107e-05,0.00015462622104678303,3.3399030598957324e-06,6.100471000536345e-05
-1.821603837015573e-05,8.880104724084958e-05,-4.37832477473421e-06,5.127992699271999e-05
-2.04753341677133e-05,4.201753836241551e-05,-9.417755791218951e-06,4.6510576794389635e-05
-1.9711187633220106e-05,1.4974632904340979e-05,-1.6227040759986266e-05,4.6123437641654164e-05
-2.0156518075964414e-05,-1.5231558791128919e-05,-2.2934656954021193e-05,4.747011189465411e-05
-2.3476201022276655e-05,-6.56938282190822e-05,-2.4778610168141313e-05,4.871409328188747e-05
-2.3806598619557917e-05,-0.00012008789781248197,-2.4098626454360783e-05,4.995147537556477e-05
-1.9918405087082647e-05,-0.00014828635903541,-2.275057340739295e-05,5.031484761275351e-05
-1.6866815713001415e-05,-0.00014376513718161732,-2.0749033865286037e-05,5.072539352113381e-05
-1.60854724526871e-05,-0.00011457381333457306,-1.8290613297722302e-05,5.549333945964463e-05
-1.5259411156876013e-05,-6.610240234294906e-05,-1.4272402950155083e-05,6.051713353372179e-05
-1.4841975826129783e-05,-4.670160706155002e-06,-1.2990461982553825e-05,6.193757144501433e-05
-1.6421254258602858e-05,1.8558534065959975e-05,-1.3594137271866202e-05,5.869632514077239e-05
-1.688699921942316e-05,-1.1431934581196401e-05,-1.1211410310352221e-05,5.679173773387447e-05
-1.7941252735909075e-05,-4.384028579806909e-05,-9.401895113114733e-06,5.604993202723563e-05
-2.1735615518991835e-05,-3.566367013263516e-05,-1.198369045596337e-05,5.77561222598888e-05
-2.9145239750505425e-05,1.0145993655896746e-05,-1.2512508874351624e-05,6.199802010087296e-05
-3.348586687934585e-05,5.477278682519682e-05,-6.6898933255288284e-06,6.366888555930927e-05
-3.339507748023607e-05,8.833483298076317e-05,-1.7607765130378539e-06,6.280477828113362e-05
-3.4694054193096235e-05,9.998040331993252e-05,1.5550410807918524e-06,6.0527072491822764e-05
-3.771178671740927e-05,8.51638542371802e-05,3.4716256323008565e-06,6.07997462793719e-05
-3.8568457966903225e-05,6.063200635253452e-05,1.8436238633512403e-06,5.912522829021327e-05
-3.337283851578832e-05,2.9155638912925497e-05,-2.9353657282626955e-06,5.6176864745793864e-05
-2.868653609766625e-05,-8.47364844958065e-06,-7.2854359132179525e-06,5.437962681753561e-05
-2.7499865609570406e-05,-5.918498209211975e-05,-8.535717824997846e-06,5.3276347898645326e-05
-3.137311796308495e-05,-0.00010935233149211854,-1.1672991604427807e-05,5.0875209126388654e-05
-3.5530068998923525e-05,-0.00011882130638696253,-1.9456960217212327e-05,4.8587571654934436e-05
-3.366241799085401e-05,-6.746046710759401e-05,-2.6494793928577565e-05,4.9185742682311684e-05
-2.7306443371344358e-05,6.025683887855848e-06,-2.5810822990024462e-05,5.148572745383717e-05
-2.261664303659927e-05,5.4316587920766324e-05,-1.9660346879391e-05,5.267450615065172e-05
-2.0820798454224132e-05,6.98475560056977e-05,-1.53657983901212e-05,5.352832522476092e-05
-1.8127813746104948e-05,7.629505125805736e-05,-1.530164990981575e-05,5.810254151583649e-05
-1.6718537153792568e-05,8.414728654315695e-05,-1.4726522749697324e-05,6.0979898989899084e-05
-1.9562035959097557e-05,7.902902143541723e-05,-1.208275443786988e-05,5.774375676992349e-05
-2.519563895475585e-05,6.498854054370895e-05,-1.0717943041527178e-05,5.344266173779033e-05
-2.7494390451465733e-05,6.799526454415172e-05,-9.643203156883828e-06,5.3320880397222936e-05
-2.4353563276235946e-05,8.08807963039726e-05,-5.373292424337706e-06,5.418748332886025e-05
-1.9466255253064446e-05,7.786014612065628e-05,-2.384563458690536e-06,5.8033125242218375e-05
-1.8113350961357355e-05,6.510272942250594e-05,-4.312770215619821e-06,6.37969424133189e-05
-2.1151467080926523e-05,5.026910366723314e-05,-5.402150691224961e-06,6.555493746418506e-05
-2.6858589990297332e-05,3.8644011510768905e-05,-2.125458195223473e-06,6.031976954545826e-05
-2.9967779482831247e-05,4.013185389339924e-05,2.1362466213759035e-06,5.303509169607423e-05
-2.7794914785772562e-05,5.37599298695568e-05,3.6801043279410806e-06,5.299419353832491e-05
-2.425432285235729e-05,5.8304281992604956e-05,-1.2727732610073872e-06,5.9507361584110186e-05
-2.2021931727067567e-05,4.4730546505888924e-05,-1.0218783245363738e-05,6.440275319619104e-05
-2.281411252624821e-05,2.6678993890527636e-05,-1.5595327568007633e-05,6.428983760997653e-05
-2.6249712391290814e-05,2.4347775251953863e-05,-1.612581399967894e-05,6.25773609499447e-05
-2.9033315513515845e-05,3.7858320865780115e-05,-1.231153783010086e-05,5.9426954976515844e-05
-2.9768190870527178e-05,5.1283277571201324e-05,-5.529322152142413e-06,5.532426803256385e-05
-2.563787165854592e-05,5.3800566092832014e-05,5.133510967425536e-07,5.2650750149041414e-05
-2.1989431843394414e-05,4.4369437091518193e-05,2.6074151264765533e-06,5.202664760872722e-05
-2.2826996428193524e-05,2.8698672394966707e-05,-5.699700977856992e-07,5.5484953918494284e-05
-2.1931520677753724e-05,1.3166742064640857e-05,-1.5169745893217623e-05,6.008019408909604e-05
-2.1043108063167892e-05,-7.1431427386414725e-06,-3.502599793137051e-05,6.271200254559517e-05
-2.2042573618819006e-05,-2.694092290767003e-05,-4.702269870904274e-05,6.390124326571822e-05
-2.442939148750156e-05,-3.278729127487168e-05,-4.7819721658015624e-05,6.276954081840813e-05
-2.6589626941131428e-05,-2.1428160835057497e-05,-4.166084909229539e-05,6.175909220473841e-05
-3.0209454052965157e-05,-7.2275752245332114e-06,-3.451096927165054e-05,6.080673847463913e-05
-3.4991808206541464e-05,-5.306107141223038e-06,-2.5350575015181676e-05,5.964540468994528e-05
-3.7531724956352264e-05,-3.7631980376318097e-06,-1.03036636573961e-05,5.8454792451811954e-05
-3.5907702113036066e-05,1.1990208804490976e-05,7.018388259893982e-06,6.0125119489384815e-05
-3.163970905006863e-05,3.990371624240652e-05,1.841981975303497e-05,6.290134479058906e-05
-2.6758762032841332e-05,7.767057104501873e-05,2.4695373213035055e-05,6.163161742733791e-05
-2.2811838789493777e-05,0.00011876832286361605,2.9653634555870667e-05,5.644599150400609e-05
-2.2709669792675413e-05,0.00015481720038224012,3.1711344490759075e-05,5.27020929439459e-05
-2.6155146770179272e-05,0.00018962462490890175,2.9875400286982767e-05,5.5980235629249364e-05
-3.061113602598198e-05,0.00021011820354033262,2.7068188501289114e-05,6.366216985043138e-05
-3.0363253245013766e-05,0.000201811344595626,2.6050358428619802e-05,7.02773395460099e-05
-2.4474027668475173e-05,0.00017613961244933307,2.6605821403791197e-05,6.942739128135145e-05
-2.0989964468753897e-05,0.0001444516092306003,2.4156155632226728e-05,6.486441270681098e-05
-2.3772117856424302e-05,0.0001176739388029091,1.857894312706776e-05,6.388458132278174e-05
-2.5993509552790783e-05,8.324503869516775e-05,5.653217158396728e-06,6.507427315227687e-05
-2.4411801859969273e-05,1.838570460677147e-05,-9.871226211544126e-06,6.080430466681719e-05
-2.531775135139469e-05,-5.580242577707395e-05,-1.9976956536993384e-05,5.14933853992261e-05
-3.03123815683648e-05,-9.825297456700355e-05,-2.1871404896955937e-05,4.319208164815791e-05
-3.0067907573538832e-05,-9.742164547787979e-05,-1.6037054592743516e-05,3.766714871744625e-05
-2.4732709789532237e-05,-7.446384552167729e-05,-1.1450238162069581e-05,3.644981552497484e-05
-2.0910012608510442e-05,-4.809424717677757e-05,-7.317685685848119e-06,3.4138956834794953e-05
-1.959864493983332e-05,-3.93124864785932e-05,-4.850581717619207e-06,3.169838964822702e-05
-1.926409822772257e-05,-3.101431502727792e-05,-8.921414519136306e-06,3.10302093566861e-05
-2.2405087293009274e-05,-1.600169707671739e-05,-1.5468296624021605e-05,3.3475840609753504e-05
-2.8579761419678107e-05,6.798260869800288e-07,-1.4547616956406273e-05,3.544396167853847e-05
-3.324496356071904e-05,9.126008990278933e-06,-9.749166565597989e-06,3.568035754142329e-05
-3.4317170502617955e-05,3.864775521833508e-07,-9.868285815173294e-06,3.764317443710752e-05
-3.338305032229982e-05,-1.6249656255240552e-05,-1.3863164895155933e-05,4.261638969182968e-05
-3.238168574171141e-05,-1.771727875166107e-05,-1.7365138774039224e-05,4.8684192734071985e-05
-3.122429552604444e-05,8.360724677913822e-06,-1.926235381688457e-05,5.167388007976115e-05
-2.923524698417168e-05,4.4028300180798396e-05,-2.100317578879185e-05,5.1988747145514935e-05
-2.5867459044093266e-05,6.870090874144807e-05,-2.3393742594635114e-05,5.011404209653847e-05
-2.0656914784922265e-05,7.393967098323628e-05,-2.1507279598154128e-05,5.128814882482402e-05
-1.5075283954502083e-05,6.639063212787732e-05,-1.4214629118214361e-05,5.7698685850482434e-05
-1.4753326468053274e-05,5.371198130887933e-05,-1.0477338946657255e-05,6.730431778123602e-05
-2.028037306445185e-05,5.429960947367363e-05,-7.670984814467374e-06,7.331011147471145e-05
-2.332656913495157e-05,6.129608664195985e-05,-4.401444584800629e-06,7.30787287466228e-05
-2.0187029804219492e-05,5.623377001029439e-05,-4.092534254596103e-06,7.068739068927243e-05
-2.103934093611315e-05,4.469214036362246e-05,-1.169578581539099e-06,7.470683340216056e-05
-2.5595794795663096e-05,4.373834599391557e-05,-2.8292110982874874e-06,8.311872079502791e-05
-2.5512188585707918e-05,4.0529794205212966e-05,-1.078286277333973e-05,8.676164725329727e-05
-2.30579316848889e-05,2.8142496375949122e-05,-1.1672486834868323e-05,8.963272557593882e-05
-2.50987086474197e-05,-6.265888714551693e-06,-9.913384019455407e-06,8.858596993377432e-05
-2.615389348648023e-05,-7.308757631108165e-05,-1.1973782420682255e-05,8.024491398828104e-05
-2.4187420422094874e-05,-0.00013797722931485623,-1.367412187391892e-05,7.15578644303605e-05
-2.412573121546302e-05,-0.00014435806951951236,-1.5447640180354938e-05,6.454155663959682e-05
-2.2861098841531202e-05,-8.91197269083932e-05,-2.1164651116123423e-05,5.9060654166387394e-05
-2.025514913839288e-05,-8.954782060754951e-06,-2.6705140044214204e-05,5.4633041145280004e-05
-1.7543781723361462e-05,5.678926390828565e-05,-2.859749656636268e-05,5.415069608716294e-05
-1.7491525795776397e-05,7.679884583922103e-05,-2.8851989554823376e-05,5.512797724804841e-05
-2.1610692783724517e-05,5.0103975809179246e-05,-3.129072138108313e-05,5.4675831052009016e-05
-2.707006387936417e-05,-6.0217857935640495e-06,-3.437981285969727e-05,5.3429259423865005e-05
-2.9889957659179345e-05,-4.7054130845936015e-05,-3.526275759213604e-05,5.3565858252113685e-05
-3.0144081392791122e-05,-3.440531509113498e-05,-3.522208862705156e-05,5.5019168939907104e-05
-3.067201760131866e-05,1.591133332112804e-05,-3.438795101828873e-05,5.7011064200196415e-05
-3.193403608747758e-05,6.20810387772508e-05,-3.081834802287631e-05,6.17863770457916e-05
-3.496767385513522e-05,9.193591540679336e-05,-2.5671566618257202e-05,6.659547216258943e-05
-3.608842962421477e-05,0.00011043326958315447,-2.0700857930933125e-05,6.920494342921302e-05
-3.1118030165089294e-05,0.00011369565618224442,-1.5337171134888195e-05,6.922746251802891e-05
-2.360072176088579e-05,0.00010122734238393605,-1.078938294085674e-05,6.516344001283869e-05
-1.5586680092383176e-05,8.415176125708967e-05,-7.445603841915727e-06,5.752214201493189e-05
-1.084742234525038e-05,5.852595131727867e-05,-5.5781647461117245e-06,5.3712687076767907e-05
-1.4134869161352981e-05,9.40791051107226e-06,-4.459182491700631e-06,5.719676482840441e-05
-2.3380553102470003e-05,-6.402434519259259e-05,-4.718433956441004e-06,6.34411335340701e-05
-3.11563526338432e-05,-0.00012013655941700563,-5.653560037899297e-06,6.439761637011543e-05
-3.284476406406611e-05,-0.0001055464381352067,-5.755172423960175e-06,6.388359179254621e-05
-2.690372639335692e-05,-3.856298644677736e-05,-6.5251224441453815e-06,5.914483335800469e-05
-2.054264405160211e-05,1.1794343208748614e-06,-1.046981560648419e-05,4.888182957074605e-05
-2.0067909645149484e-05,2.532290091039613e-05,-2.7651272830553353e-05,4.70855702587869e-05
-2.297302125953138e-05,7.514731987612322e-05,-4.943925159750506e-05,5.2196821343386546e-05
-2.5903465939336456e-05,0.00012123501801397651,-5.462623084895313e-05,5.737074025091715e-05
-2.043734821199905e-05,0.00012862989387940615,-4.559992885333486e-05,6.20737046119757e-05
-1.2757789590978064e-05,8.759400225244462e-05,-3.0960942240199074e-05,6.457043491536751e-05
-1.0640746040735394e-05,3.522620318108238e-05,-1.742114000080619e-05,6.32024894002825e-05
-1.5692468878114596e-05,-7.553962859674357e-07,-4.4763737605535425e-06,5.895144568057731e-05
-2.2306932805804536e-05,-1.9993694877484813e-05,9.96540802589152e-06,5.558407792705111e-05
-2.5398816433153115e-05,-3.323390046716668e-05,2.2714344595442526e-05,5.496585072251037e-05
-2.4694989406270906e-05,-4.703323793364689e-05,2.8547168767545372e-05,5.447677176562138e-05
-2.4527826099074446e-05,-4.4021333451382816e-05,2.8145092073827982e-05,5.506315574166365e-05
-2.788800520647783e-05,-1.56997557496652e-05,2.3938629965414293e-05,5.7942885177908465e-05
-3.063420808757655e-05,2.6573465220280923e-05,2.0062061594217084e-05,6.197558104759082e-05
-3.1025101634440944e-05,5.957343819318339e-05,1.825385152187664e-05,6.479630974354222e-05
-2.9932409233879298e-05,6.919167935848236e-05,1.611323023098521e-05,6.791279156459495e-05
-3.1008563382783905e-05,5.6039090850390494e-05,1.0335919796489179e-05,7.032870053080842e-05
-3.2211391953751445e-05,3.755868601729162e-05,1.8101221712640836e-06,6.75017581670545e-05
-3.2923340768320486e-05,2.3458826035493985e-05,-3.969115368818166e-06,6.080798266339116e-05
-3.486890273052268e-05,4.268286829756107e-06,-6.533724899782101e-06,5.608359060715884e-05
-3.455308251432143e-05,-3.7287423765519634e-05,-8.983725820144173e-06,5.674127896782011e-05
-2.8996282708249055e-05,-9.528253576718271e-05,-1.0906800525845028e-05,5.77495047764387e-05
-2.338706144655589e-05,-0.0001336715795332566,-1.1940814147237688e-05,5.72211247344967e-05
-2.1149851818336174e-05,-0.00012500853335950524,-1.1567828551051207e-05,5.5695691116852686e-05
-2.3424398023053072e-05,-7.185619324445724e-05,-8.731826710572932e-06,5.115007661515847e-05
-2.7942149245063774e-05,-1.601146323082503e-05,-9.344927093479782e-06,4.966979759046808e-05
-3.5054526961175725e-05,1.1277145858912263e-05,-1.5480609363294207e-05,5.03174087498337e-05
-3.881389420712367e-05,2.6870015062741004e-05,-2.1134728740435094e-05,5.032074841437861e-05
-3.9444927097065374e-05,4.491819709073752e-05,-2.1535061023314483e-05,5.416465864982456e-05
-3.8185931771295145e-05,4.5247979869600385e-05,-2.429302730888594e-05,5.668690209859051e-05
-3.559897231752984e-05,1.871710628620349e-05,-2.6704688934842125e-05,5.712693018722348e-05
-3.670861406135373e-05,1.3258593298814958e-06,-2.5837391149252653e-05,5.913290078751743e-05
-3.78000368073117e-05,1.222067658090964e-05,-2.0540714103844948e-05,6.569694960489869e-05
-3.705850394908339e-05,2.815668449329678e-05,-1.6035583030316047e-05,6.930895324330777e-05
-3.471213858574629e-05,4.2323761590523645e-05,-1.7623229723540135e-05,6.767459854017943e-05
-3.081891918554902e-05,5.3454215958481655e-05,-2.112918627972249e-05,6.877499254187569e-05
-2.623150430736132e-05,6.083814878365956e-05,-2.1470241335919127e-05,6.98577132425271e-05
-2.6369747502030805e-05,6.271940947044641e-05,-1.627677193027921e-05,6.67101630824618e-05
-2.9871023798477836e-05,5.960575435892679e-05,-7.638264833076391e-06,5.897958908462897e-05
-2.8511445634649135e-05,5.038872404838912e-05,-2.5894173631968442e-06,5.158389831194654e-05
-2.1218784240772948e-05,3.94940834667068e-05,-6.394708179868758e-06,5.1438124501146376e-05
-1.2882159353466704e-05,3.428345007705502e-05,-1.1658758921839762e-05,5.685041469405405e-05
-8.227367288782261e-06,3.4076536394422874e-05,-1.2858188711106777e-05,5.8999459724873304e-05
-7.693676707276609e-06,3.301461401861161e-05,-1.0630739780026488e-05,5.4953732615103945e-05
-7.162682777561713e-06,3.018540155608207e-05,-6.265450338105438e-06,5.4501633712789044e-05
-6.493093678727746e-06,2.9667577109648846e-05,-1.440709183953004e-06,6.045017653377727e-05
-9.608571417629719e-06,3.5788943932857364e-05,-7.853151373637957e-07,6.593643774976954e-05
-1.5794943465152755e-05,4.796103166881949e-05,-2.8948400085937465e-06,6.705326813971624e-05
-2.015079189732205e-05,6.425716856028885e-05,-5.916096597502474e-06,6.70144145260565e-05
-2.1491730876732618e-05,9.270095324609429e-05,-6.243658845050959e-06,6.924698391230777e-05
-2.1012539946241304e-05,0.00012674668687395751,-4.857142812397797e-06,6.77766656735912e-05
-2.0011762899230234e-05,0.0001375910360366106,-8.25987990538124e-06,6.222040974535048e-05
-2.025509820668958e-05,0.00010648820170899853,-1.4740758160769474e-05,5.6081469665514305e-05
-2.353611125727184e-05,2.9744231142103672e-05,-1.484724270994775e-05,5.398435314418748e-05
-2.54732949542813e-05,-4.1991774196503684e-05,-9.93597222986864e-06,5.548546323552728e-05
-2.4952172680059448e-05,-5.0849928811658174e-05,-6.2051931308815256e-06,5.639778100885451e-05
-2.3267453798325732e-05,-1.1759061635530088e-05,-5.553366918320535e-06,6.120089528849348e-05
-1.8271890439791605e-05,2.1736970666097477e-05,-5.837860953761265e-06,6.829344783909619e-05
-1.6414307538070716e-05,1.0760566510725766e-05,-4.660215836338466e-06,6.952875992283225e-05
-2.178213617298752e-05,-4.465581241674954e-06,-4.35890797234606e-06,6.520235183415934e-05
-2.785752985801082e-05,2.736660235314048e-06,-3.9433539313904475e-06,6.084258347982541e-05
-3.0836563382763416e-05,1.6650232282700017e-05,-4.057154910697136e-06,6.122298509581015e-05
-2.8862868930445984e-05,2.5645109417382628e-05,-5.765772584709339e-06,6.137131276773289e-05
-2.6013169190264307e-05,3.738232408068143e-05,-7.284618277481059e-06,5.9082016377942637e-05
-2.6237139536533505e-05,3.289187588961795e-05,-7.0394935391959734e-06,5.667480581905693e-05
-2.7816586225526407e-05,-1.517812393103668e-06,-5.245541160547873e-06,5.5588403483852744e-05
-2.796358967316337e-05,-2.8577009288710542e-05,-3.1374217996926745e-06,5.640314702759497e-05
-2.5512459615129046e-05,4.008419125511864e-07,-9.196315318149573e-07,5.8585737860994413e-05
-2.2740558051737025e-05,6.124667561380193e-05,1.278480908695201e-06,5.843115286552347e-05
-2.2942538635106757e-05,9.374617366120219e-05,2.214885626017349e-06,5.47690833627712e-05
-2.6805297238752246e-05,9.27860164665617e-05,1.2917418246161105e-07,5.069220424047671e-05
-3.0552786483895034e-05,8.37482584756799e-05,-6.1715168158116285e-06,5.01975737279281e-05
-3.0411974876187742e-05,7.443533831974491e-05,-1.2336616237007547e-05,5.211139068705961e-05
-2.6465466362424195e-05,6.0664657212328166e-05,-1.3119337381795049e-05,5.073365173302591e-05
-2.187902464356739e-05,5.6499597121728584e-05,-1.2448135748854838e-05,5.1128728955518454e-05
-1.908367448777426e-05,6.14473974565044e-05,-1.3651730114361271e-05,5.534483716473915e-05
-1.8957236534333788e-05,5.670353857567534e-05,-1.585197969689034e-05,5.261341721052304e-05
-1.9642600818770006e-05,3.4869990486186e-05,-1.4616483895224519e-05,4.5503125875256956e-05
-1.9598954168031923e-05,2.1553933038376272e-05,-1.1129027370770928e-05,4.0318267565453425e-05
-1.9051829440286383e-05,3.1413215765496716e-05,-1.22734945762204e-05,3.183716398780234e-05
-2.322156615264248e-05,5.6686942116357386e-05,-1.6574431356275454e-05,3.04029763356084e-05
-3.016426671820227e-05,6.868003401905298e-05,-2.1446285245474428e-05,3.9312642911681905e-05
-3.7085013900650665e-05,7.053527951939031e-05,-2.3306323782890104e-05,4.695264942711219e-05
-4.077510311617516e-05,7.858205935917795e-05,-2.021008731389884e-05,4.648982940125279e-05
-3.469938747002743e-05,0.00010380157618783414,-1.4802771147515159e-05,4.501279545365833e-05
-2.6368250473751687e-05,0.00012479283032007515,-1.2720781342068221e-05,4.7684370656497777e-05
-2.6413443265482783e-05,0.00011374537280062214,-1.0640354958013631e-05,5.1514743972802535e-05
-3.0571274692192674e-05,8.299988985527307e-05,-8.696274562680628e-06,5.198012149776332e-05
-2.885863978008274e-05,6.826976459706202e-05,-7.88453507993836e-06,4.673445437219925e-05
-2.3193470042315312e-05,8.600815635873005e-05,-4.951979008183116e-06,4.151546454522759e-05
-2.3683274775976315e-05,0.00011189724318683147,-3.887473212671466e-06,4.139171869610436e-05
-3.228639252483845e-05,0.0001073252351488918,-4.72896363135078e-06,4.4065327529096976e-05
-4.212094791000709e-05,7.221765554277226e-05,-3.5977186598756816e-06,4.720779543276876e-05
-4.785655619343743e-05,3.411328361835331e-05,-2.144853397112456e-06,5.266416337690316e-05
-4.8223871999653056e-05,-1.018156672216719e-05,-3.7517884265980683e-06,5.6098670029314235e-05
-4.812430415768176e-05,-6.123816274339333e-05,-4.610449195752153e-06,5.344452438293956e-05
-5.055861038272269e-05,-9.664298704592511e-05,-5.878459319319518e-07,4.925254688714631e-05
-4.996478674001992e-05,-0.00010117590136360377,4.224818894726923e-06,4.951865048496984e-05
-4.526650081970729e-05,-9.13527183001861e-05,3.1408076210936997e-06,5.518229227163829e-05
-3.968649252783507e-05,-7.455141167156398e-05,-5.113508905196795e-07,6.086465509724803e-05
-3.298373849247582e-05,-3.7690137105528265e-05,-1.9577839793782914e-06,6.235294131329283e-05
-2.7525771656655706e-05,1.13835076263058e-05,-3.00684541798546e-06,6.548382225446403e-05
-2.7320327717461623e-05,3.642479714471847e-05,-5.314829650160391e-06,7.214828656287864e-05
-2.8178981665405445e-05,2.9552589694503695e-05,-8.049260941334069e-06,7.327333878492936e-05
-2.9149488909752108e-05,2.005352325795684e-05,-1.3917680917074904e-05,6.869636126793921e-05
-3.409689452382736e-05,4.2090166971320286e-05,-2.1021265638410114e-05,6.582463538507e-05
-3.436662518652156e-05,8.427628199569881e-05,-2.5001596441143192e-05,6.733852933393791e-05
-2.575960934336763e-05,0.00011773121514124796,-2.1020050553488545e-05,7.280090358108282e-05
-1.9086712200078182e-05,0.00012684192915912718,-1.3039648365520407e-05,7.600218668812886e-05
-1.850441549322568e-05,0.00011541800631675869,-1.2172405149613041e-05,7.280152931343764e-05
-1.9225621144869365e-05,9.12532996153459e-05,-1.6209158275160007e-05,6.675759505014867e-05
-2.029405914072413e-05,4.4212709326529875e-05,-1.908440208353568e-05,6.441428558900952e-05
-2.259847315144725e-05,6.441524419642519e-06,-1.7352165741613135e-05,6.318775558611378e-05
-2.2582529709325172e-05,2.3243692339747213e-05,-1.4224659025785513e-05,6.244046380743384e-05
-2.112992478942033e-05,5.487624366651289e-05,-1.6398265870520845e-05,6.18830745224841e-05
-2.2536403776030056e-05,2.7722897357307374e-05,-2.222056718892418e-05,6.150570698082447e-05
-2.445728205202613e-05,-5.9496116591617465e-05,-2.4765611669863574e-05,6.323726120172068e-05
-2.7062273147748783e-05,-0.00015129472012631595,-2.388828397670295e-05,6.119201862020418e-05
-3.0573435651604086e-05,-0.00020139738626312464,-2.4018769181566313e-05,5.6781798775773495e-05
-3.2953888876363635e-05,-0.00019869371317327023,-2.4059747374849394e-05,5.4916254157433286e-05
-3.1678457162342966e-05,-0.00017515092622488737,-2.1361209292081185e-05,5.500295083038509e-05
-2.9821238058502786e-05,-0.0001588328304933384,-1.80614078999497e-05,5.635976049234159e-05
-2.8835218472522683e-05,-0.00014327270037028939,-1.633956708246842e-05,5.974874511593953e-05
-2.796458466036711e-05,-0.00012146772496635094,-1.5751924365758896e-05,6.31128204986453e-05
-2.618334474391304e-05,-0.00010422080958960578,-1.3666239283338655e-05,6.417811528081074e-05
-2.006189060921315e-05,-9.437473636353388e-05,-9.428141311218496e-06,6.633746670559049e-05
-9.96869130176492e-06,-8.061913831625134e-05,-6.289119028224377e-06,6.901828601257876e-05
-2.528413460822776e-06,-5.895290814805776e-05,-6.273985491134226e-06,6.835994281573221e-05
-4.390184358271654e-07,-3.144857691950165e-05,-8.025203896977473e-06,6.729613232892007e-05
3.0617802622145973e-06,4.4137109398434404e-06,-6.821192982897628e-06,7.048089901218191e-05
2.93680704999133e-06,3.762924825423397e-05,-2.5490396637906088e-06,7.460491906385869e-05
-6.569702691194834e-06,4.1468072595307603e-05,-2.0134843907726463e-06,7.32558619347401e-05
-1.481878734921338e-05,2.919385406130459e-05,-6.604403097298928e-06,6.868430500617251e-05
-1.7533420759718865e-05,3.296360227977857e-05,-7.738223757769447e-06,6.550583930220455e-05
-2.1460025891428813e-05,4.4843451178167015e-05,-6.803810720157344e-06,5.9676360251614824e-05
-2.2124861061456613e-05,5.700758993043564e-05,-2.826382797138649e-06,5.57531529921107e-05
-1.837548188632354e-05,7.075096073094755e-05,9.987060366256628e-06,6.066230344003998e-05
-1.9630595488706604e-05,6.601153290830553e-05,1.7206957636517473e-05,6.502526230178773e-05
-2.579264582891483e-05,6.113345443736762e-05,1.4960807675379328e-05,6.546702206833288e-05
-2.552163823565934e-05,7.206063310150057e-05,1.2515265552792698e-05,6.565269723068923e-05
-2.0565719751175493e-05,7.334531255764887e-05,1.0071613360196352e-05,6.387945177266374e-05
-1.782655090210028e-05,5.4180261940928176e-05,6.7576988840301055e-06,5.609965228359215e-05
-1.9062625142396428e-05,2.984067759825848e-05,4.456693204701878e-06,5.1022187108173966e-05
-2.4515315089956857e-05,1.1318816177663393e-05,1.349297463093535e-06,4.93108163936995e-05
-2.869105628633406e-05,5.319628144206945e-06,-2.248899590995279e-06,4.9467118515167385e-05
-3.125493822153658e-05,8.310741577588487e-06,-3.50592586073617e-06,4.931611692882143e-05
-3.64168117812369e-05,1.5895611795713194e-05,-4.4908811105415225e-06,4.2406019929330796e-05
-4.4200387492310256e-05,3.6805464333156124e-05,-7.778019607940223e-06,3.521835242281668e-05
-4.931737930746749e-05,8.255764259956777e-05,-1.1365073987690266e-05,3.479939550743438e-05
-4.8072863137349486e-05,0.0001257255207747221,-1.2339197382971179e-05,3.856542753055692e-05
-4.165014979662374e-05,0.00011608618660829961,-1.0055774509964976e-05,3.968298187828623e-05
-3.5778146411757916e-05,5.1257535233162344e-05,-7.5817615652340464e-06,3.750513496925123e-05
-3.534484130796045e-05,-1.8372405975242145e-05,-1.0959442079183646e-05,3.598104740376584e-05
-3.740170723176561e-05,-2.9400733183138072e-05,-1.6895415683393367e-05,3.951815961045213e-05
-3.435834514675662e-05,3.0534058168996125e-05,-1.8195531083620153e-05,4.534753315965645e-05
-2.8267631932976656e-05,0.00010318245767848566,-1.3605706044472754e-05,4.9288002628600225e-05
-2.608087561384309e-05,0.00012945129128638655,-7.4526055868773255e-06,5.014318958274089e-05
-2.6877765776589513e-05,0.00011400217044865713,-7.29932116882992e-06,5.4279335017781705e-05
-2.5727997126523405e-05,8.754283771850169e-05,-1.1549067494343035e-05,5.998697452014312e-05
-2.1999816453899257e-05,7.177774386946112e-05,-1.1880058082169853e-05,6.394406227627769e-05
-2.072838287858758e-05,6.62748352624476e-05,-1.1013346920663025e-05,6.67598214931786e-05
-2.1174881112528965e-05,5.7973371440311894e-05,-1.6301966752507724e-05,6.7706081608776e-05
-1.7530695913592353e-05,5.4576623369939625e-05,-2.1131014364073053e-05,7.149214070523158e-05
-1.2859401977038942e-05,5.452091136248782e-05,-2.20880210690666e-05,7.445691153407097e-05
-1.1852536772494204e-05,5.870178938494064e-05,-2.323586340935435e-05,7.313648529816419e-05
-1.5900290236459114e-05,6.0868744185427204e-05,-2.2550982976099476e-05,7.033629663055763e-05
-2.2374440959538333e-05,4.990821980754845e-05,-1.995289494516328e-05,6.482366734417155e-05
-2.7039026463171467e-05,4.5173837861511856e-05,-1.4941154404368717e-05,6.0369497077772394e-05
-3.279624434071593e-05,5.0056016334565356e-05,-1.2248464372532908e-05,5.942899952060543e-05
-3.5684930480783805e-05,6.131720874691382e-05,-1.3187805052439217e-05,5.73859506403096e-05
-3.2942192774498835e-05,6.91769237164408e-05,-1.722830711514689e-05,5.076143133919686e-05
-3.0271923606051132e-05,9.009092173073441e-05,-2.1599391402560286e-05,4.6077078877715394e-05
-2.9220624128356576e-05,0.00011637589341262355,-2.158766073989682e-05,4.885308226221241e-05
-2.7549460355658084e-05,0.00012386520393192768,-1.8716043996391818e-05,5.5335258366540074e-05
-2.458896597090643e-05,0.0001024563898681663,-1.857498318713624e-05,6.349629256874323e-05
-2.0945182768628e-05,7.023230864433572e-05,-2.2571897716261446e-05,7.03165351296775e-05
-2.0418765416252427e-05,5.508465983439237e-05,-2.566121838754043e-05,7.472637662431225e-05
-2.404559745627921e-05,5.669080201187171e-05,-2.439715353830252e-05,7.534213364124298e-05
-2.7937563572777435e-05,5.5921143939485773e-05,-1.9755505491048098e-05,7.138920773286372e-05
-2.918308018706739e-05,3.2529809686820954e-05,-1.7103839127230458e-05,7.026601088000461e-05
-2.792641862470191e-05,-8.894116945157293e-06,-1.6474583389936015e-05,7.481013017240912e-05
-2.9543551136157475e-05,-5.4054096835898235e-05,-1.530035660834983e-05,7.633496716152877e-05
-3.339294562465511e-05,-7.85647498560138e-05,-1.2807320672436617e-05,7.183009438449517e-05
-3.2319305319106206e-05,-7.30226092855446e-05,-1.1541290405148175e-05,6.813451182097197e-05
-2.850072087312583e-05,-4.272109435987659e-05,-1.3507119547284674e-05,6.836482498329133e-05
-2.5373710741405375e-05,-1.0871237464016303e-05,-1.6263144061667845e-05,6.974523421376944e-05
-2.11974711419316e-05,1.38460145535646e-05,-1.5120705938898027e-05,7.047762483125553e-05
-2.204567499575205e-05,3.395440580789e-05,-1.2286373930692207e-05,6.552706327056512e-05
-2.6314468414057046e-05,4.645453009288758e-05,-9.043730642588343e-06,6.100023529143073e-05
-2.503933137631975e-05,5.651743049384095e-05,-9.288167348131537e-06,6.0073369240853935e-05
-2.0936427972628735e-05,6.0909409512532875e-05,-1.1937620911339764e-05,5.66097951377742e-05
-2.1403104256023653e-05,4.959358921041712e-05,-1.4338128494273406e-05,5.382370000006631e-05
-2.422880606900435e-05,3.236414340790361e-05,-1.5420482668559998e-05,5.329374471330084e-05
-2.3513388441642746e-05,1.3497829058906063e-05,-1.4613839084631763e-05,5.4145362810231745e-05
-1.8821529010892846e-05,-3.4033200790872797e-06,-1.6742078514653258e-05,5.8422592701390386e-05
-1.4168304915074259e-05,-9.401572242495604e-06,-1.7480644601164386e-05,6.3127234170679e-05
-1.4906519936630502e-05,-3.316975153211388e-06,-1.6819769371068105e-05,6.482552271336317e-05
-1.992112083826214e-05,1.135871229962504e-06,-1.4334789739223197e-05,6.425648462027311e-05
-2.542460606491659e-05,1.0097779522766359e-05,-9.7386564448243e-06,6.130182009655982e-05
-2.9854976673959754e-05,2.107073669321835e-05,-1.7556981219968293e-06,6.1010458011878654e-05
-3.0208189855329692e-05,2.2263102437136695e-05,6.23247615294531e-06,6.381883576977998e-05
-2.7746957130148076e-05,2.1388676032074727e-05,6.985169420659076e-06,6.7199143813923e-05
-2.612827483972069e-05,3.737705628736876e-05,4.042872205900494e-06,6.763269630027935e-05
-2.7900503482669592e-05,6.425548781407997e-05,3.315309641038766e-06,6.701525853713974e-05
-3.0030234484001994e-05,7.146073767216876e-05,7.351975455094362e-06,6.623611261602491e-05
-2.8873504561488517e-05,4.774813714902848e-05,1.3551750271290075e-05,6.193715671543032e-05
-2.7013938961317763e-05,1.0113138159795199e-05,1.6872818378033116e-05,5.855049312231131e-05
-2.8705495424219407e-05,-2.6676327252062038e-05,1.1610542969719972e-05,5.908384991926141e-05
-3.1191906600724906e-05,-5.8078170695807785e-05,2.280665967191453e-06,5.8644189266487956e-05
-2.8788803319912404e-05,-6.204659439390525e-05,-1.6255027048828197e-06,5.694847641279921e-05
-2.5273173378081992e-05,-3.769915201701224e-05,1.8547880245023407e-06,5.4886273574084044e-05
-2.3402431907015853e-05,-8.017809705052059e-06,6.707727152388543e-06,5.11835387442261e-05
-2.1586320144706406e-05,1.0234204637527e-05,8.20853438199265e-06,5.267680899123661e-05
-1.876960050140042e-05,3.485999332042411e-05,6.564746399817523e-06,5.6784039770718664e-05
-1.821055957407225e-05,8.235662244260311e-05,5.592790785158286e-06,5.919145405641757e-05
-1.895589957712218e-05,0.0001374192797811702,1.0973897587973624e-05,5.9031110140495e-05
-1.6741389117669314e-05,0.00012329884339123964,1.5169742255238816e-05,5.9896625316469e-05
-1.5213372535072267e-05,2.6671164960134774e-05,1.0949710485874675e-05,6.37272241874598e-05
-1.8186303350375965e-05,-4.656522287405096e-05,4.0720888137002476e-06,6.061797830625437e-05
-2.7557211069506593e-05,-4.7045923565747216e-05,-2.806232032526168e-06,5.157200575922616e-05
-3.880119766108692e-05,-2.941164893854875e-05,-1.5419876945088618e-05,4.3567008106037974e-05
-4.1697134292917326e-05,-2.5553626983310096e-05,-2.5592460588086396e-05,3.759425817406736e-05
-3.613777153077535e-05,-1.3070676686766092e-05,-2.247094744234346e-05,3.321228359709494e-05
-3.094449857599102e-05,1.3631310139317065e-05,-1.531565976620186e-05,3.382064824108966e-05
-3.0499368222081102e-05,5.686643271474168e-05,-1.2252094165887684e-05,4.160178650636226e-05
-3.379973350092769e-05,0.00011998893751297146,-1.4171598195389379e-05,5.121791400597431e-05
-3.769807153730653e-05,0.0001727534836390987,-1.6789903384051286e-05,5.394759864429943e-05
-3.7658664950868115e-05,0.0001831987319746986,-1.8955095583805814e-05,4.794494452653453e-05
-3.2060470402939245e-05,0.00016354757826775312,-1.9062525097979233e-05,4.336753045208752e-05
-2.4740382286836393e-05,0.00012639617489185184,-1.5354396964539774e-05,4.4632510252995417e-05
-2.249069257231895e-05,5.072866770206019e-05,-1.026856989483349e-05,4.882556459051557e-05
-2.6465366318007e-05,-6.55661933706142e-05,-9.651383152231574e-06,5.281253470457159e-05
-3.067300349357538e-05,-0.00016592103929724544,-1.391608384437859e-05,5.38955137017183e-05
-3.0211562261683866e-05,-0.00019081342907156795,-1.6209223758778535e-05,5.364370736060664e-05
-2.590870462881867e-05,-0.00014730051043443382,-1.5636025636922568e-05,5.3915835451334715e-05
-2.057212077488657e-05,-9.710941958473995e-05,-1.6188463632715866e-05,5.106672324473038e-05
-2.0295672584325075e-05,-8.259492460638285e-05,-1.5978414012352005e-05,4.49345498054754e-05
-2.481483534211293e-05,-7.753089448669925e-05,-1.2177655662526377e-05,4.475766763789579e-05
-2.6356081434641965e-05,-3.7767757021356374e-05,-8.16281226434512e-06,5.338311166269705e-05
-2.4162147383322008e-05,2.925087210314814e-05,-3.5710547763301292e-06,6.283910624915734e-05
-1.969985169125721e-05,8.277009328594431e-05,2.2584131329494994e-06,6.898362335050479e-05
-1.5846853784751147e-05,0.0001086183256120421,5.854476057720603e-06,7.086522236932069e-05
-1.600178802618757e-05,0.00013373000547289848,3.0029891604499426e-06,7.166038994910195e-05
-1.5659339624107815e-05,0.00014212590758688748,-1.4612779750677873e-06,7.282575097633526e-05
-1.7140737327281386e-05,0.00010864200157811865,-6.292759735515574e-06,6.75063201924786e-05
-2.3276965293916874e-05,7.941851072246209e-05,-5.542691269511124e-06,6.112728442531079e-05
-2.5298641048721038e-05,7.080867362674326e-05,-3.50586697095423e-06,5.775851968792267e-05
-2.4042270524660125e-05,5.3565247071674094e-05,-9.380350093124434e-06,5.782162043033168e-05
-2.1221281713224016e-05,2.9503189580282196e-05,-1.7303094864473678e-05,6.33895251667127e-05
-1.4182805898599327e-05,1.6295314708258957e-05,-2.241965921712108e-05,6.967603985685855e-05
-1.2429788512235973e-05,-2.4494511308148503e-06,-2.7304728064336814e-05,7.003811333561316e-05
-1.885327037598472e-05,-1.7609521819395013e-05,-3.343488060636446e-05,6.315666541922837e-05
-2.546991345298011e-05,-7.780851092320518e-07,-3.6428504245122895e-05,5.904368663323112e-05
-2.553999365773052e-05,1.5248817362589762e-05,-3.76883072021883e-05,5.9721052821259946e-05
-2.0335814042482525e-05,-2.162257942472934e-06,-3.9152979297796264e-05,6.277758802752942e-05
-1.8870030544348992e-05,-2.991323526657652e-05,-4.126724888919853e-05,6.335293437587097e-05
-2.2055357476347126e-05,-3.9880615076981485e-05,-4.2471256165299565e-05,5.774277087766677e-05
-2.6042931494885124e-05,-3.198408012394793e-05,-4.4589280150830746e-05,4.9570491682970896e-05
-3.088367520831525e-05,-5.8160726439382415e-06,-4.798065128852613e-05,4.8212063120445237e-05
-3.6911253118887544e-05,4.02606965508312e-05,-4.922909283777699e-05,5.299258918967098e-05
-3.954021667595953e-05,7.923114753793925e-05,-4.401769183459692e-05,5.6337030400754884e-05
-3.676483902381733e-05,5.9352689277147874e-05,-3.718305015354417e-05,5.484665234689601e-05
-3.126380033791065e-05,-1.4931196346879005e-05,-3.5194876545574516e-05,5.073831198387779e-05
-2.5232791813323274e-05,-6.429388304241002e-05,-3.207246118108742e-05,5.2949362725485116e-05
-2.122057594533544e-05,-5.1568218623287976e-05,-2.5014940547407605e-05,6.107297667767853e-05
-2.271770244988147e-05,-1.2791740118700545e-05,-1.9612529285950586e-05,6.645025860052556e-05
-2.659708115970716e-05,1.470624192734249e-05,-1.6788060747785494e-05,6.399035919457674e-05
-2.9004551834077574e-05,1.8329685190110467e-05,-1.5026983419375028e-05,5.980611967970617e-05
-2.8755261155311018e-05,8.893152880773414e-06,-1.3308058441907633e-05,5.6585296988487244e-05
-2.3751870685373433e-05,1.0473962902324274e-05,-9.458617569180205e-06,6.11232899245806e-05
-2.4046968974289484e-05,1.8955450286739506e-05,-6.244296400836902e-06,6.901296728756279e-05
-2.7574695195653476e-05,9.684796168585308e-06,-1.9884096218447667e-06,7.043184450594708e-05
-2.474918437656015e-05,-1.5918546978355153e-06,1.4904109093549778e-06,6.663958629360422e-05
-2.525945456000045e-05,-2.2679110770695843e-05,-8.936485187405196e-07,6.0624141042353585e-05
-2.845217204594519e-05,-4.978884680895135e-05,-1.8607769334266777e-06,5.4359043133445084e-05
-2.698607750062365e-05,-3.9634989661863074e-05,3.3968958632613067e-06,5.31046862306539e-05
-2.2656919099972583e-05,1.132572924689157e-05,8.15651765151415e-06,5.9565416449913755e-05
-2.066386878141202e-05,7.809539965819567e-05,8.172564776032232e-06,6.321232649497688e-05
-2.071785638690926e-05,0.00014941958943381906,1.2316787433519494e-05,6.394995580194518e-05
-2.0774365111719817e-05,0.00020678367582149804,2.292524732183665e-05,6.741810648236424e-05
-2.2215799617697485e-05,0.0002171071246266365,2.7576306820265017e-05,7.263431325554848e-05
-2.5247740268241614e-05,0.00018059385183732957,2.070656046271324e-05,7.486359390895814e-05
-2.6772404453367926e-05,0.00012996859732083976,1.086547490558587e-05,7.559060031780973e-05
-2.25673084059963e-05,8.636753773316741e-05,3.5242169360572007e-06,7.752023520879447e-05
-1.6726635294617154e-05,4.4238138798391446e-05,-3.287415665909066e-06,7.781020394759253e-05
-1.6189680536626838e-05,2.6657469788915478e-05,-6.537044100696221e-06,7.24714482203126e-05
-1.831570261856541e-05,5.1520946726668626e-05,-3.968505552620627e-06,6.391557690221816e-05
-1.8845414160750806e-05,7.511231524404138e-05,-4.0119734876498114e-06,6.145920633571222e-05
-2.2520984202856198e-05,3.3224070648429915e-05,-1.3059792763669975e-05,6.315785140031949e-05
-3.071067112614401e-05,-5.3177689551375806e-05,-2.4832930648699403e-05,5.9754591347882524e-05
-3.7518402677960694e-05,-9.577575838193297e-05,-3.190221468685195e-05,5.2491548558464274e-05
-3.639499482233077e-05,-7.401363836834207e-05,-3.2488504075445235e-05,4.6879806177457795e-05
-2.943182880699169e-05,-4.2869793105637655e-05,-2.9340873879846185e-05,4.283280941308476e-05
-2.2673882995150052e-05,-2.5788078346522525e-05,-2.370030415477231e-05,4.297358464100398e-05
-1.7770997146726586e-05,9.89184991340153e-06,-1.7899099475471303e-05,4.776642890647054e-05
-1.71872725331923e-05,6.538843445014209e-05,-1.4581681170966476e-05,5.163725290913135e-05
-1.969350705621764e-05,8.934021752793342e-05,-9.140844667854253e-06,5.318840339896269e-05
-2.5158387870760635e-05,5.46046721865423e-05,-1.676627448432555e-06,4.855379302171059e-05
-2.9740733225480653e-05,-9.838306141318753e-06,3.018173401869717e-06,4.227482349961065e-05
-2.641349237819668e-05,-4.726414772449061e-05,7.232471034512855e-06,4.513942985795438e-05
-1.9105304090771824e-05,-3.9891285268822685e-05,9.503956789558288e-06,5.1175862608943135e-05
-1.6212867194553837e-05,-2.5342664230265655e-05,7.340850515902275e-06,5.580765355261974e-05
-2.077789031318389e-05,-5.698603854398243e-05,1.2704073242275626e-06,5.7017768995137885e-05
-2.3267337383003905e-05,-0.00010624554852256551,-5.781775598734384e-06,5.4682601330569014e-05
-2.342206244065892e-05,-0.00010395086428616196,-9.180000233754981e-06,5.404259354691021e-05
-2.4917442715377547e-05,-5.7161560107488185e-05,-6.463295449066209e-06,5.7558670960133895e-05
-2.7656114980345592e-05,-1.596985566720832e-05,-1.1364420515747042e-06,5.946053715888411e-05
-2.8958336770301685e-05,-3.5353716043573513e-07,1.3137706673660432e-06,5.817501005367376e-05
-2.700065124372486e-05,6.559478151757503e-06,1.2395296380418586e-06,5.917113958275877e-05
-2.4104429030558094e-05,1.150003299699165e-05,4.842232783630607e-07,6.453455716837198e-05
-2.3343927750829607e-05,1.7761240087565966e-05,6.464852617682482e-07,6.792605563532561e-05
-2.7479474738356657e-05,2.398436117800884e-05,4.572493139676226e-07,6.638524791924283e-05
-3.24598113365937e-05,3.268939326517284e-05,-2.1396720057964558e-06,6.389307964127511e-05
-3.503580592223443e-05,3.789100082940422e-05,-6.103236046328675e-06,6.0443624533945695e-05
-3.431868753978051e-05,3.595099042286165e-05,-4.938328402204206e-06,5.740962296840735e-05
-3.300679236417636e-05,3.695290433824994e-05,2.1702219328290084e-06,5.5189964768942446e-05
-3.1494164431933314e-05,4.681144855567254e-05,6.281542027863907e-06,5.485665678861551e-05
-3.262753671151586e-05,5.516522651305422e-05,5.015283022657968e-06,5.672577754012309e-05
-3.653579915408045e-05,5.538040568353608e-05,1.199255734718463e-06,5.9227597375866026e-05
-3.76950811187271e-05,5.034873174736276e-05,-4.914009878120851e-06,6.047930583008565e-05
-3.499872036627494e-05,4.724294558400288e-05,-7.213933713501319e-06,6.132978160167113e-05
-3.104736970271915e-05,4.648527828976512e-05,-4.24843028667965e-06,6.086947541916743e-05
-3.199745697202161e-05,4.242609065840952e-05,8.362800372196943e-07,6.06719077040907e-05
-3.447293056524359e-05,3.8430134736699983e-05,1.2018176676065195e-06,6.112206756370142e-05
-3.543703496688977e-05,3.728174124262296e-05,-9.455063263885677e-06,6.190798012539744e-05
-3.705257040564902e-05,3.092279439442791e-05,-1.654482912272215e-05,6.382645369740203e-05
-3.7017351132817566e-05,2.4496195692336187e-05,-1.427817278454313e-05,6.600723281735554e-05
-3.814941374002956e-05,2.5924886358552612e-05,-1.414245616615517e-05,6.488640792667866e-05
-3.707289579324424e-05,2.2359508875524625e-05,-1.5291778254322708e-05,6.054047480574809e-05
-3.4238903026562184e-05,1.2678352504735813e-05,-1.1584012099774554e-05,5.7762532378546894e-05
-3.186432149959728e-05,1.4539278708980419e-05,-7.729388016741723e-06,5.827834320371039e-05
-2.9152124625397846e-05,3.1895666324999183e-05,-6.7515711634769104e-06,6.126272637629882e-05
-2.6626930775819346e-05,4.325630652601831e-05,-9.13956591830356e-06,6.11168725299649e-05
-2.6016383344540372e-05,4.138120129937306e-05,-2.2150887161842547e-05,5.6738754210527986e-05
-2.5881592591758817e-05,3.5629567719297484e-05,-4.1523762774886563e-05,5.211750976741314e-05
-2.7847845558426343e-05,3.794178701355122e-05,-5.460994361783378e-05,4.9231763114221394e-05
-3.2865325920283794e-05,4.8930069169728085e-05,-5.583297024713829e-05,4.78553120046854e-05
-3.422737790970132e-05,5.8571564295561984e-05,-4.767825157614425e-05,4.835913568967953e-05
-2.9273298423504457e-05,5.490502007887699e-05,-3.401346839382313e-05,5.187755959923379e-05
-1.996293940464966e-05,5.291353591019288e-05,-1.9281116692582145e-05,5.871193570783362e-05
-1.1373195775377098e-05,6.276791100390255e-05,-7.596154773636954e-06,6.439384742407128e-05
-6.64418166707037e-06,6.574968574568629e-05,1.003544184641214e-06,6.437839329009876e-05
-7.74021555116633e-06,4.89345911773853e-05,9.993818821385503e-06,6.058184590074234e-05
-1.3254442819743417e-05,3.136014856863767e-05,2.2036083464627154e-05,5.76698912482243e-05
-1.9878983948729e-05,3.0226099624997005e-05,3.526803266140632e-05,5.830960799357854e-05
-2.0089328245376237e-05,4.026570968562737e-05,4.3225121771683916e-05,6.0681632021442056e-05
-1.6366595446015708e-05,5.5069816880859435e-05,4.07185907533858e-05,6.394695810740814e-05
-1.5071800589794293e-05,6.0490121541079134e-05,2.9626977266161703e-05,6.53529423289001e-05
-1.9964492821600288e-05,5.535341188078746e-05,1.661055466684047e-05,6.28578636678867e-05
-2.4341587050003e-05,5.259595127427019e-05,8.822270501696039e-06,6.114142888691276e-05
-2.374468203925062e-05,5.626021811622195e-05,6.0199472500244156e-06,6.020180808263831e-05
-2.3350137780653313e-05,6.098832454881631e-05,8.821390110824723e-06,5.943865835433826e-05
-2.4632710847072303e-05,6.32508090347983e-05,7.112635557859903e-06,5.7833633036352694e-05
-2.7523488824954256e-05,6.089733142289333e-05,-4.572384568746202e-06,4.876403545495123e-05
-2.8844908229075372e-05,5.171950033400208e-05,-1.8227936379844323e-05,4.352619362180121e-05
-2.6027466446976177e-05,3.265375562477857e-05,-2.0721654436783865e-05,4.856671148445457e-05
-2.1189604012761265e-05,7.597377134516137e-06,-1.1641157470876351e-05,5.3666066378355026e-05
-1.9135406546411105e-05,-1.1580934369703755e-05,-4.573145815811586e-06,5.6079617934301496e-05
-1.6119338397402316e-05,-1.2108981536584906e-05,-2.7224255063629244e-06,5.548674744204618e-05
-1.5079011063789949e-05,9.749392120284028e-06,-7.221226951514836e-06,5.721028719563037e-05
-2.0423489331733435e-05,4.283633461454883e-05,-1.230393991136225e-05,6.061835665605031e-05
-2.8195083359605633e-05,7.128499419195578e-05,-1.416033865098143e-05,6.537922308780253e-05
-3.221003862563521e-05,8.126723696477711e-05,-1.2438957128324546e-05,6.884185859235004e-05
-3.094096973654814e-05,6.140447658253834e-05,-1.139011510531418e-05,7.032555731711909e-05
-2.8731388738378882e-05,1.154151868831832e-05,-1.3406965990725439e-05,7.15537607902661e-05
-3.109686076641083e-05,-4.93877669214271e-05,-1.7487152945250273e-05,6.889780343044549e-05
-3.6817997170146555e-05,-9.07252324395813e-05,-2.0436840713955462e-05,6.151016714284196e-05
-4.005104347015731e-05,-9.733073238749057e-05,-1.933056591951754e-05,5.3383690101327375e-05
-3.870553337037563e-05,-7.591651228722185e-05,-1.6658874301356263e-05,5.030003740102984e-05
-3.5884811950381845e-05,-4.514225656748749e-05,-1.6280309864669107e-05,5.091002458357252e-05
-3.388664481462911e-05,-1.1771663594117854e-05,-1.746709313010797e-05,5.242607949185185e-05
-3.2730891689425334e-05,1.4403337445401121e-05,-1.5181572052824777e-05,5.369128120946698e-05
-3.225749242119491e-05,1.5628873370587826e-05,-1.3365799532039091e-05,5.4135944083100185e-05
-3.036937050637789e-05,9.86564191407524e-06,-1.7173999367514625e-05,5.169007636141032e-05
-3.215169272152707e-05,1.797695404093247e-05,-2.5485169317107648e-05,4.610471296473406e-05
-3.257027856307104e-05,3.9681348425801843e-05,-3.4201126254629344e-05,4.135515700909309e-05
-2.757113725238014e-05,7.103905227268115e-05,-3.802201899816282e-05,4.123189501115121e-05
-2.284412221342791e-05,0.00010033652506535873,-3.9005073631415144e-05,4.536533378995955e-05
-1.8877926777349785e-05,0.00010882021160796285,-4.006101517006755e-05,5.093949948786758e-05
-1.4001560884935316e-05,6.608488911297172e-05,-3.5841541830450296e-05,5.0735019613057375e-05
-1.2208683983772062e-05,-1.7800466594053432e-05,-3.0153829357004724e-05,4.933260061079636e-05
-2.025053254328668e-05,-7.291268411790952e-05,-2.6095380235346965e-05,4.580826134770177e-05
-2.6998375687981024e-05,-5.5450091167585924e-05,-2.2884169084136374e-05,3.793140786001459e-05
-2.5215555069735274e-05,2.644751020852709e-06,-1.8743943655863404e-05,3.5085562558379024e-05
-2.3032844183035195e-05,5.76502934563905e-05,-1.6003577911760658e-05,3.7963371141813695e-05
-2.3072194380802102e-05,9.948288789018989e-05,-1.491849161538994e-05,4.5259126636665314e-05
-2.279641921631992e-05,0.00012210897693876177,-9.691330888017546e-06,5.2353421779116616e-05
-2.441171818645671e-05,0.00012121594772906974,-1.022899482450157e-06,5.545368549064733e-05
-2.805836447805632e-05,0.00012031273217871785,8.62695014802739e-06,5.403885734267533e-05
-2.8783913876395673e-05,0.00013083376688882709,1.4520972399623133e-05,5.196591155254282e-05
-2.712001878535375e-05,0.0001324725162703544,1.2852297004428692e-05,5.387003693613224e-05
-2.307176146132406e-05,0.00012060964218107983,5.172003511688672e-06,5.475740181282163e-05
-1.985352901101578e-05,9.465034236200154e-05,-1.9438261915638577e-06,5.2496714488370344e-05
-2.049517752311658e-05,4.9265021516475827e-05,-6.013105576130329e-06,5.097791290609166e-05
-2.3256539861904457e-05,-1.6637775843264535e-05,-8.221925781981554e-06,4.966936103301123e-05
-2.257887535961345e-05,-7.471384742530063e-05,-9.571993359713815e-06,4.806700599147007e-05
-1.6334988686139695e-05,-8.057649392867461e-05,-7.971663762873504e-06,4.9477690481580794e-05
-5.7060105973505415e-06,-4.05975260946434e-05,-5.120081368659157e-06,5.4525185987586156e-05
2.40018334807246e-06,-9.44980638450943e-06,-5.987004897178849e-06,5.9215864894213155e-05
-5.388168915487768e-07,-1.1016123835361213e-06,-1.1280716535111424e-05,6.58653661957942e-05
-1.1764426744775847e-05,-9.628367479308508e-06,-1.91472536243964e-05,7.174978964030743e-05
-2.287553252244834e-05,-3.5397522879065946e-05,-2.6696792701841332e-05,6.93445181241259e-05
-2.6146803065785207e-05,-6.178650801302865e-05,-2.7666770620271564e-05,6.433113594539464e-05
-2.7785452402895316e-05,-7.766266207909212e-05,-1.9300852727610618e-05,6.269737059483305e-05
-3.457119964878075e-05,-0.00010051091521745548,-1.4877049579808954e-05,5.9961839724564925e-05
-3.693758844747208e-05,-0.00012139027967350557,-1.640535265323706e-05,5.3990839660400525e-05
-3.332066989969462e-05,-9.76874289335683e-05,-1.590845022292342e-05,5.226652865530923e-05
-3.408771226531826e-05,-3.537865632097237e-05,-1.2140282706241123e-05,5.432557009044103e-05
-3.8474889151984826e-05,2.0956538719474338e-05,-6.785144705645507e-06,5.3318053687689826e-05
-4.1476112528471276e-05,5.514626900549047e-05,-3.704282789840363e-06,5.295726077747531e-05
-3.9934053347678855e-05,8.217355934903026e-05,-3.3869036997202784e-06,5.895674621569924e-05
-3.4723361750366166e-05,9.205089008901268e-05,-2.309064484506962e-06,6.559511530213058e-05
-2.9542956326622516e-05,9.505850175628439e-05,2.29932948059286e-06,6.89229418640025e-05
-2.5137345801340416e-05,0.00010501136421225965,7.891415407357272e-06,7.067267142701894e-05
-2.0153811419731937e-05,0.00011353633453836665,1.1436946806497872e-05,7.204217399703339e-05
-1.469624930905411e-05,0.0001104793482227251,1.2368599527690094e-05,7.495860336348414e-05
-1.074038209480932e-05,0.00010182586993323639,1.2803722711396404e-05,7.878139149397612e-05
-1.0360270607634448e-05,8.538725523976609e-05,8.558534318581223e-06,8.241902105510235e-05
-1.2156961020082235e-05,5.569252243731171e-05,-2.2393735434889095e-06,8.462993719149381e-05
-1.4758785255253315e-05,3.8775568100390956e-05,-1.1007804459950421e-05,8.5165083874017e-05
-1.9099512428510934e-05,3.694658516906202e-05,-1.3106029655318707e-05,8.281158079626039e-05
-2.509162550268229e-05,5.881083779968321e-06,-1.5326671928050928e-05,7.731099321972579e-05
-2.6766012524603866e-05,-4.354992779553868e-05,-1.5054777577461209e-05,7.429816469084471e-05
-2.4094102627714165e-05,-3.591314089135267e-05,-3.2428629310743418e-06,7.746519986540079e-05
-2.7131009119329974e-05,2.624599619593937e-05,7.832806659280322e-06,7.815110438968986e-05
-3.887308048433624e-05,6.672357994830236e-05,1.0096721325680846e-06,6.892235978739336e-05
-4.409577013575472e-05,6.473553366959095e-05,-1.377189255435951e-05,5.75889898755122e-05
-3.0317176424432546e-05,6.76897179801017e-05,-1.7145379388239235e-05,5.759093619417399e-05
-1.1871579772559926e-05,7.313249807339162e-05,-9.08130004972918e-06,6.688506255159155e-05
-6.143739483377431e-06,6.268777360673994e-05,-8.343293984580669e-07,7.121553062461317e-05
-1.4691316209791694e-05,5.504544606083073e-05,1.0284916243108455e-06,6.23942178208381e-05
-2.7036436222260818e-05,3.841404031845741e-05,-1.021855268845684e-06,4.879583866568282e-05
-2.6634284949977882e-05,-1.7138809198513627e-05,-4.654873919207603e-06,4.898820770904422e-05
-2.0131295968894847e-05,-9.44543062360026e-05,-1.0011981430579908e-05,5.32091835339088e-05
-2.1981664758641273e-05,-0.0001262017322005704,-1.3831366231897846e-05,5.7024801208171993e-05
-2.9487840947695076e-05,-7.363891927525401e-05,-1.2289562619116623e-05,6.151945854071528e-05
-3.230195216019638e-05,2.9873588573536836e-05,-1.3500036402547266e-05,5.911730841035023e-05
-2.765464159892872e-05,0.00014878946240060031,-1.786740540410392e-05,5.86755559197627e-05
-2.6431234800838865e-05,0.00025140325305983424,-1.9169048755429685e-05,6.0630507505265996e-05
-2.9723709303652868e-05,0.0002921019622590393,-2.0727829905808903e-05,6.560554902534932e-05
-3.5799726902041584e-05,0.00025177979841828346,-2.4056340407696553e-05,6.866348849143833e-05
-3.8067733839852735e-05,0.0001640723494347185,-2.8246513466001488e-05,6.804616714362055e-05
-3.692679092637263e-05,6.951422983547673e-05,-3.3364773116772994e-05,6.472798850154504e-05
-3.444452158873901e-05,-5.531537681235932e-06,-3.783797728829086e-05,6.144085637060925e-05
-3.42562998412177e-05,-5.431554018286988e-05,-4.3377443944336846e-05,5.64361471333541e-05
-3.8794521969975904e-05,-9.112997213378549e-05,-5.149772914592177e-05,4.7238663682946935e-05
-4.466102836886421e-05,-0.0001197738092741929,-5.848118962603621e-05,4.079575592186302e-05
-4.413081842358224e-05,-0.00013456268061418086,-5.8412573707755655e-05,4.1981416870839894e-05
-3.478241342236288e-05,-0.00013649345783051103,-4.779242954100482e-05,4.957717101206072e-05
-2.710402804950718e-05,-0.00013404301716946065,-3.113145430688746e-05,5.915146539337002e-05
-2.6841571525437757e-05,-0.00011579315469134599,-1.8429564079269767e-05,6.766788283130154e-05
-3.027802631550003e-05,-6.504360499093309e-05,-1.4105728951108176e-05,6.890474469400942e-05
-3.020862459379714e-05,-3.485032948447042e-06,-1.4098771316639613e-05,6.274839688558131e-05
-3.122475027339533e-05,2.8449521778384224e-05,-1.618154055904597e-05,5.824169056722894e-05
-3.441093576839194e-05,2.835644227161538e-05,-1.9602155589382164e-05,5.722932837670669e-05
-3.5909830330638215e-05,2.873033054129337e-06,-2.4508559363312088e-05,5.3180567192612216e-05
-2.8446604119380936e-05,-4.057083060615696e-05,-2.822245551215019e-05,5.31063305970747e-05
-2.3017515559331514e-05,-6.497407593997195e-05,-2.6308183805667795e-05,5.5797077948227525e-05
-2.675811992958188e-05,-4.16796283388976e-05,-1.4833151908533182e-05,5.5418040574295446e-05
-3.1661846151109785e-05,-5.436334959085798e-06,-5.877619969396619e-06,5.3373809350887313e-05
-3.2563344575464725e-05,1.651883212616667e-05,-4.771279236592818e-06,5.342614167602733e-05
-2.527200194890611e-05,2.6833127776626498e-05,-4.129785338591319e-06,5.6411106925224885e-05
-1.4180495782056823e-05,2.1163472410989925e-05,-3.5697548810276203e-06,6.0231908719288185e-05
-8.477339179080445e-06,-7.840093303457252e-07,-2.770221726677846e-06,6.050365846022032e-05
-1.078994228009833e-05,-2.5293362341471948e-05,-2.7683965981850633e-06,5.9283938753651455e-05
-1.152476488641696e-05,-2.025498542934656e-05,-4.624571090516838e-07,5.783257438451983e-05
-1.2222902114444878e-05,1.1515696314745583e-05,1.5558373434032546e-06,5.655675704474561e-05
-1.4722508240083698e-05,4.53793145425152e-05,4.324102064856561e-06,5.3378083975985646e-05
-1.944004361575935e-05,7.307373016374186e-05,6.332244993245695e-06,4.919764614896849e-05
-2.2918662580195814e-05,8.372330921702087e-05,5.62804052606225e-06,4.689727211371064e-05
-2.153444802388549e-05,4.426860323292203e-05,2.51170490628283e-06,4.556403655442409e-05
-1.7564041627338156e-05,-3.64306615665555e-05,-3.348940253999899e-06,4.512548184720799e-05
-1.4688165720144752e-05,-9.223201050190255e-05,-8.785435966274235e-06,4.289081698516384e-05
-1.5016048564575613e-05,-8.72180171427317e-05,-1.2158172467024997e-05,4.1545063140802085e-05
-1.905279714264907e-05,-5.391185186454095e-05,-1.4333772014651913e-05,4.325198824517429e-05
-2.6634366804501042e-05,-3.4339824196649715e-05,-1.3702163414563984e-05,4.391121183289215e-05
-3.415750325075351e-05,-2.561937435530126e-05,-8.265990800282452e-06,4.0699378587305546e-05
-3.8531568861799315e-05,8.07068954600254e-06,-5.109704034111928e-06,4.130700835958123e-05
-3.737898441613652e-05,8.763695950619876e-05,-3.1626238978788024e-06,4.9654954636935145e-05
-3.3146850910270587e-05,0.00016403236077167094,2.4282574031531112e-06,5.9020298067480326e-05
-2.5780707801459357e-05,0.00018707029812503606,9.640162716095801e-06,6.227389530977234e-05
-1.7670394299784675e-05,0.000181354524102062,1.4758871657249983e-05,6.119260069681332e-05
-1.2379326108202804e-05,0.00017530849436298013,1.6197775039472617e-05,6.103962368797511e-05
-1.1455214917077683e-05,0.0001520139630883932,1.0569779078650754e-05,6.1286729760468e-05
-1.5126144717214629e-05,0.00011845401604659855,2.1617854599753628e-06,5.8763915149029344e-05
-2.0345480152172968e-05,0.00010876653686864302,9.762678701008554e-07,5.95810852246359e-05
-2.2259102479438297e-05,9.397598478244618e-05,3.31300316247507e-06,6.129707617219537e-05
-2.3933875127113424e-05,1.6035795852076262e-05,1.4620809452026151e-06,6.0144433518871665e-05
-2.808806675602682e-05,-7.054900197545066e-05,-4.852388428844279e-07,6.109203968662769e-05
-3.2765026844572276e-05,-0.00010161982936551794,-3.333265794935869e-06,6.283721450017765e-05
-3.058617585338652e-05,-0.00010362335160607472,-5.631952717521926e-06,6.07238725933712e-05
-2.0335633962531574e-05,-9.528605733066797e-05,-3.2928733162407298e-06,6.11413997830823e-05
-1.2152138879173435e-05,-8.114287629723549e-05,-2.287585630256217e-06,6.088629015721381e-05
-1.6522819350939244e-05,-6.02405852987431e-05,-4.424620328791207e-06,5.7405224652029574e-05
-2.777787267405074e-05,-3.300672324257903e-05,-5.9972053350065835e-06,5.6886849051807076e-05
-3.550280962372199e-05,-9.642833902034909e-06,-5.069083726993995e-06,5.7745830417843536e-05
-3.820683195954189e-05,-8.236335133915418e-07,-5.230971510172822e-06,5.982505899737589e-05
-3.5463122912915424e-05,3.500171260384377e-06,-7.489756626455346e-06,6.349846808006987e-05
-2.8761747671524063e-05,2.2635749701294117e-05,-1.129775591834914e-05,6.777053931728005e-05
-2.2156256818561815e-05,5.488787064678036e-05,-1.614430220797658e-05,7.14732232154347e-05
-1.8617893147165887e-05,7.657981768716127e-05,-1.831338340707589e-05,7.302601443370804e-05
-1.832517227740027e-05,8.083195280050859e-05,-1.5467830962734297e-05,7.101507799234241e-05
-2.2480231564259157e-05,8.004155824892223e-05,-1.0793900401040446e-05,6.87253923388198e-05
-2.4064380340860225e-05,7.446394738508388e-05,-7.4597992352209985e-06,6.691856106044725e-05
-2.263865462737158e-05,6.45976688247174e-05,-6.943609605514212e-06,6.390622729668394e-05
-2.256987863802351e-05,5.748240801040083e-05,-1.0312144695490133e-05,6.242344534257427e-05
-2.5816450943239033e-05,5.3826821385882795e-05,-1.712508856144268e-05,6.375803059199825e-05
-2.9158116376493126e-05,4.7817968152230605e-05,-2.280429362144787e-05,6.235202454263344e-05
-2.6449914003023878e-05,4.5586497435579076e-05,-2.531864811317064e-05,6.111036782385781e-05
-2.213924926763866e-05,4.6710785682080314e-05,-2.731506720010657e-05,6.369898619595915e-05
-2.1604591893265024e-05,4.6760545956203714e-05,-2.658956691448111e-05,6.842512084404007e-05
-2.2632973923464306e-05,4.843829447054304e-05,-2.4276056137750857e-05,6.509714148705825e-05
-2.4998827939270996e-05,4.659081241698004e-05,-2.4655812012497336e-05,5.00813803228084e-05
-2.6992916900780983e-05,4.0499009628547356e-05,-2.223218689323403e-05,4.222578718326986e-05
-2.6218152925139293e-05,3.438643034314737e-05,-1.7256681530852802e-05,4.790514140040614e-05
-2.512991522962693e-05,3.887561251758598e-05,-1.3658719581144396e-05,5.176148624741472e-05
-2.7729151042876765e-05,5.2960283937864006e-05,-7.307931355171604e-06,5.388415956986137e-05
-3.0136336135910824e-05,6.345420115394518e-05,-4.43919088866096e-06,5.667159712174907e-05
-3.186091998941265e-05,6.546929944306612e-05,-5.2234177019272465e-06,5.675117063219659e-05
-3.186960384482518e-05,6.351784395519644e-05,-1.8666100913833361e-06,5.466364018502645e-05
-2.97979040624341e-05,6.823056901339442e-05,6.055694029782899e-06,5.274614522932097e-05
-2.853246587619651e-05,7.101634400896728e-05,1.2678564417001326e-05,5.362733281799592e-05
-2.882266926462762e-05,6.597811443498358e-05,1.0391371688456275e-05,5.3242576541379094e-05
-3.071085666306317e-05,5.364583194022998e-05,4.6810569642730115e-07,5.10343634232413e-05
-3.0473556762444787e-05,4.560866727842949e-05,-9.777674677025061e-06,4.864323273068294e-05
-2.8769416530849412e-05,4.4089134462410584e-05,-1.4062589798413683e-05,5.013201734982431e-05
-2.6726260330178775e-05,4.1417693864787e-05,-1.205968510475941e-05,5.3891541028860956e-05
-2.5599370928830467e-05,3.317973096272908e-05,-8.475398317386862e-06,5.6359331210842356e-05
-2.462752308929339e-05,2.8439822926884517e-05,-7.034645477688173e-06,5.772269651060924e-05
-2.5350307623739354e-05,3.4565437090350315e-05,-5.563532340602251e-06,5.7865741837304085e-05
-2.5895966246025637e-05,4.0580041968496516e-05,-3.30558782479784e-06,5.663646516040899e-05
-2.3463051547878422e-05,4.2017054511234164e-05,-1.2638975022127852e-06,5.635248453472741e-05
-2.0292192857596092e-05,4.5609940571011975e-05,9.722485856400453e-07,5.676785804098472e-05
-2.1900752471992746e-05,4.930823342874646e-05,1.0813764674821869e-06,5.393135506892577e-05
-2.7200920158065856e-05,4.360442471806891e-05,-2.1579219264822314e-06,4.9930389650398865e-05
-3.191223004250787e-05,3.611448119045235e-05,-3.955152351409197e-06,5.1493614591890946e-05
-3.24212851410266e-05,2.4206807211157866e-05,-1.2020777830912266e-06,5.553221490117721e-05
-2.8487873350968584e-05,2.5186043330904795e-06,3.483198497633566e-06,5.493973731063306e-05
-2.8265005312277935e-05,-1.9323770175105892e-05,5.122402399138082e-06,5.4843367252033204e-05
-3.019645737367682e-05,-2.1453552108141594e-05,4.097978944628267e-06,5.609344589174725e-05
-2.5253450075979345e-05,7.159891993069323e-06,5.630279247270664e-06,5.9355741541367024e-05
-1.8420612832414918e-05,4.6712608309462667e-05,3.124627482975484e-06,6.375091470545158e-05
-1.7468295482103713e-05,6.995784497121349e-05,-9.212535587721504e-07,6.414189556380734e-05
-2.066639717668295e-05,5.6554723414592445e-05,-2.4723840397200547e-06,6.555887375725433e-05
-2.5194460249622352e-05,1.569135201862082e-05,-6.318929990811739e-06,6.469136860687286e-05
-2.6006253392552026e-05,-6.5043464019254316e-06,-9.467055861023255e-06,6.076117279008031e-05
-2.4081395167740993e-05,7.930972969916184e-06,-1.2903406968689524e-05,6.000128269079141e-05
-2.4092189050861634e-05,4.8220645112451166e-05,-1.6567333659622818e-05,6.189742998685688e-05
-2.5166733394144103e-05,7.358193397521973e-05,-1.904904820548836e-05,6.382553692674264e-05
-2.653194678714499e-05,5.060245166532695e-05,-1.5938108845148236e-05,6.313303310889751e-05
-3.0374994821613654e-05,-1.1028137123503257e-06,-9.798396604310255e-06,6.093403135309927e-05
-3.1254439818440005e-05,-3.0277762562036514e-05,-4.437809820956318e-06,6.0316531744319946e-05
-2.750115527305752e-05,-2.3241011149366386e-05,-2.6286452339263633e-06,6.327087612589821e-05
-2.4681321519892663e-05,-4.135119525017217e-06,-4.438315954757854e-06,6.761311669833958e-05
-2.5685681976028718e-05,6.763404599041678e-06,-5.5084683481254615e-06,7.181186811067164e-05
-2.97579936159309e-05,1.4555834241036791e-05,-4.175235972070368e-06,7.302534504560754e-05
-3.5903638490708545e-05,3.303711855551228e-05,-4.723970050690696e-06,7.053474109852687e-05
-3.990985351265408e-05,5.0122776883654296e-05,-1.083394636225421e-05,6.384672451531515e-05
-3.952584302169271e-05,4.031068237964064e-05,-2.035658690147102e-05,5.4545176681131124e-05
-3.573338835849427e-05,7.099644335539779e-06,-2.9568816898972727e-05,4.850699770031497e-05
-2.9930935852462426e-05,-1.7023099871948943e-06,-3.274254413554445e-05,4.505837932811119e-05
-2.2721904315403663e-05,2.2805103071732447e-05,-3.0855826480546966e-05,4.2659241444198415e-05
-1.3364283404371236e-05,3.8431335269706324e-05,-2.6909301595878787e-05,4.281439760234207e-05
-9.120501999859698e-06,3.0022945338714635e-06,-2.403834878350608e-05,4.4140819227322936e-05
-1.2724019143206533e-05,-7.209433533716947e-05,-2.365222644584719e-05,4.391156471683644e-05
-2.339093407499604e-05,-0.00012403236178215593,-2.8047508749295957e-05,4.092338349437341e-05
-3.521541293594055e-05,-0.00011908233136637136,-3.124465001747012e-05,3.6331482988316566e-05
-4.0393420931650326e-05,-7.061738142510876e-05,-2.5118353732977994e-05,3.668511999421753e-05
-4.0638598875375465e-05,-7.180431566666812e-06,-1.5573250493616797e-05,4.167876249994151e-05
-3.856136027025059e-05,4.18427080148831e-05,-1.0069742529594805e-05,4.8083060391945764e-05
-3.598679177230224e-05,6.1011083744233474e-05,-7.830522008589469e-06,5.192392927710898e-05
-3.3712796721374616e-05,4.1340877942275256e-05,-4.072853698744439e-06,5.273602801025845e-05
-3.0918934498913586e-05,-1.8458413251210004e-05,2.3551901904284023e-06,5.342702934285626e-05
-3.190173811162822e-05,-8.521047857357189e-05,4.695509687735466e-06,5.110928032081574e-05
-3.6290643038228154e-05,-0.00010619672684697434,2.624202124934527e-06,4.937008998240344e-05
-3.8172798667801544e-05,-7.636907685082406e-05,-2.2250533220358193e-06,5.186061025597155e-05
-3.459518848103471e-05,-1.4021642527950462e-05,-4.962726507073967e-06,5.985051393508911e-05
-3.0792030884185806e-05,5.685149153578095e-05,-5.67060305911582e-06,6.793053762521595e-05
-2.880308784369845e-05,0.00010339368600398302,-7.060478765197331e-06,6.960913015063852e-05
-2.316030986548867e-05,0.00012221676297485828,-1.4845805708318949e-05,6.642839434789494e-05
-1.637544482946396e-05,0.00014384239329956472,-3.4945296647492796e-05,6.44241736154072e-05
-1.5976263966877013e-05,0.00016748739290051162,-5.68038085475564e-05,6.299779488472268e-05
-2.2316242393571883e-05,0.00014189042849466205,-6.690496957162395e-05,6.0775073507102206e-05
-2.8807080525439233e-05,6.450750515796244e-05,-6.468650099122897e-05,5.658174632117152e-05
-2.930982918769587e-05,2.05538217414869e-05,-5.691498881787993e-05,5.041796976001933e-05
-2.719042095122859e-05,6.373291398631409e-05,-4.737319613923319e-05,4.608214658219367e-05
-2.9695887860725634e-05,0.00013630519970320165,-3.697354986798018e-05,4.646327579393983e-05
-3.352574276505038e-05,0.00015053981042001396,-1.9067785615334287e-05,5.172459714231081e-05
-3.4811640944099054e-05,0.0001061798247974366,1.960638655873481e-06,5.4284024372464046e-05
-3.753350392798893e-05,7.512101001339033e-05,1.3814565136271995e-05,5.210402741795406e-05
-4.2463798308745027e-05,7.660873961867765e-05,1.42131611937657e-05,4.849684773944318e-05
-4.556076237349771e-05,7.769319927319884e-05,1.2942177818331402e-05,5.087232420919463e-05
-3.980263863923028e-05,5.152655648998916e-05,1.6025604054448195e-05,5.645104101859033e-05
-2.9267901481944136e-05,-2.0738332750624977e-05,1.6237001545960084e-05,5.4109874326968566e-05
-2.6584069928503595e-05,-6.978400779189542e-05,1.013656674331287e-05,5.109030826133676e-05
-2.2042737327865325e-05,-3.312416811240837e-05,9.802083695831243e-06,5.1929378969362006e-05
-1.5587742382194847e-05,1.6677260646247305e-05,1.8757918951450847e-05,5.4801086662337184e-05
-1.3768657481705304e-05,1.3300002137839328e-05,2.7035695893573575e-05,6.128572567831725e-05
-1.4268911399994977e-05,-2.1322848624549806e-05,2.797280831146054e-05,6.43693856545724e-05
-1.8077915228786878e-05,-2.9519978852476925e-05,1.8622518837219104e-05,6.190654676174745e-05
-1.8763339539873414e-05,-1.815556242945604e-05,4.203731350571616e-06,5.670283644576557e-05
-1.3290490642248187e-05,-2.717009738262277e-05,-6.384296284522861e-06,5.404683179222047e-05
-5.633331966237165e-06,-7.392447150778025e-05,-7.991512575244997e-06,5.4626296332571656e-05
-1.6901536810109974e-06,-0.00013756309635937214,-2.8779841159121133e-06,6.058964572730474e-05
-4.475842160900356e-06,-0.00018919329158961773,1.8249888853461016e-06,6.639115599682555e-05
-9.806436537473928e-06,-0.00019857614825014025,6.671457867923891e-06,6.846447649877518e-05
-1.4498824384645559e-05,-0.00014355737948790193,1.0400789506093133e-05,6.8823886977043e-05
-1.8622304196469486e-05,-3.710885357577354e-05,1.3277822290547192e-05,6.756448419764638e-05
-1.9875735233654268e-05,7.108538557076827e-05,1.8325856217416003e-05,6.649881834164262e-05
-1.786340362741612e-05,0.00012864626478403807,2.229265919595491e-05,6.818519614171237e-05
-1.5367533706012182e-05,0.00014980824198573828,1.7339069017907605e-05,6.793296051910147e-05
-1.2497503121267073e-05,0.0001838192401919514,5.127756594447419e-06,6.10601418884471e-05
-1.074844658432994e-05,0.00021406554151326418,-7.536195880675223e-06,5.3334304539021105e-05
-1.2181619240436703e-05,0.00019306682224851102,-2.1244095478323288e-05,5.339893323252909e-05
-1.4763454601052217e-05,0.00014222484605852515,-3.494879638310522e-05,6.023701644153334e-05
-1.941315167641733e-05,9.91864872048609e-05,-4.562035246635787e-05,6.021003719069995e-05
-2.7792624678113498e-05,8.09207558631897e-05,-5.4861517128301784e-05,4.9545273213880137e-05
-3.33549251081422e-05,8.462425466859713e-05,-6.146443047327921e-05,3.714656850206666e-05
-3.6618403100874275e-05,7.864693907322362e-05,-6.244530959520489e-05,3.2708776416257024e-05
-4.0301005356013775e-05,5.916714508202858e-05,-5.931616760790348e-05,3.493738768156618e-05
-3.367481622262858e-05,6.495991692645475e-05,-5.2234398026484996e-05,4.158347292104736e-05
-1.9998717107228003e-05,8.215656271204352e-05,-3.9902355638332665e-05,4.588768206303939e-05
-1.1832247764687054e-05,6.854083767393604e-05,-2.82655000773957e-05,5.397423592512496e-05
-1.3525319445761852e-05,1.3964333447802346e-05,-2.4505150577169843e-05,6.163379293866456e-05
-2.4626200683997013e-05,-6.206126272445545e-05,-2.2180733139975928e-05,5.724453876609914e-05
-3.5179778933525085e-05,-0.00014137827383819968,-2.179660259571392e-05,4.8775869800010696e-05
-3.8206886529223993e-05,-0.00018560807802714407,-2.00680206035031e-05,5.0484064558986574e-05
-3.7573314330074936e-05,-0.0001696683611953631,-1.5519379303441383e-05,6.091688192100264e-05
-3.682170790852979e-05,-0.0001296655391342938,-8.010893907339778e-06,6.577177555300295e-05
-3.585481317713857e-05,-0.00012246356345713139,4.207701749692205e-06,6.413557275664061e-05
-3.1177871278487146e-05,-0.0001342393079539761,1.3874436262995005e-05,6.236530316527933e-05
-2.523379589547403e-05,-0.00011588023335207254,1.356647590000648e-05,6.383593427017331e-05
-2.264501563331578e-05,-5.790175055153668e-05,4.71292241854826e-06,6.770971231162548e-05
-2.2820493541075848e-05,2.161664451705292e-05,-2.775751681838301e-06,7.270402420544997e-05
-2.3538066670880653e-05,9.973903797799721e-05,-4.463191999093397e-06,7.512708543799818e-05
-2.7002270144294016e-05,0.00016900339687708765,-3.995263341494137e-06,7.29899838916026e-05
-3.110612306045368e-05,0.00022111360158305615,-9.06768036657013e-07,7.13140398147516e-05
-2.7692487492458895e-05,0.00024087379279080778,9.00380837265402e-06,7.318452844629064e-05
-1.605059514986351e-05,0.00020963317365385592,2.0002595192636363e-05,7.513236050726846e-05
-5.457446604850702e-06,0.00014910126628819853,2.3771206542733125e-05,7.306678162422031e-05
-7.807859219610691e-06,8.944313594838604e-05,1.7363005099468865e-05,6.589375698240474e-05
-2.053464595519472e-05,3.912494139513001e-05,6.02853197051445e-06,5.595659604296088e-05
-2.9548395104939118e-05,1.041027280734852e-05,-1.3769066526947427e-06,4.954519317834638e-05
-2.554016828071326e-05,1.7083701095543802e-05,-2.571607637946727e-07,5.08562006871216e-05
-1.6432049960712902e-05,1.1895462193933781e-05,6.1578743952850346e-06,5.7654277043184265e-05
-1.7083697457564995e-05,-3.30275870510377e-05,7.242089395731455e-06,6.393077637767419e-05
-2.5575760446372442e-05,-1.2160448022768833e-05,-1.2218263236718485e-06,6.365848093992099e-05
-2.8710692276945338e-05,0.0001412872807122767,-4.127099145989632e-06,6.211572326719761e-05
-2.4517996280337684e-05,0.0002607897622510791,5.45734792467556e-07,6.430858047679067e-05
-1.8638196706888266e-05,0.00023362727370113134,-6.322309218376176e-07,6.828651385148987e-05
-1.6243082427536137e-05,0.00013843535271007568,-1.0195187314820942e-05,6.872320227557793e-05
-1.8631759303389117e-05,4.703224476543255e-05,-1.8470042050466873e-05,6.831180508015677e-05
-1.9924384105252102e-05,-3.81822646886576e-05,-2.0559200493153185e-05,6.909702642587945e-05
-2.4558583390899003e-05,-0.00013336777919903398,-2.3298131054616533e-05,6.684480467811227e-05
-3.183179796906188e-05,-0.00021535094128921628,-2.897127706091851e-05,6.288447912083939e-05
-2.9171063943067566e-05,-0.0002560333232395351,-3.059116716030985e-05,6.152459536679089e-05
-2.174078872485552e-05,-0.0002089230838464573,-2.4310364096891135e-05,6.321643013507128e-05
-2.396244599367492e-05,-0.00010705552995204926,-1.7440494048059918e-05,6.0671663959510624e-05
-3.667832424980588e-05,-2.0823150407522917e-05,-1.7824089809437282e-05,4.977298158337362e-05
-4.4708423956763e-05,3.377869870746508e-05,-2.374310679442715e-05,3.789415495702997e-05
-4.364546839497052e-05,5.5221349612111226e-05,-2.8052432753611356e-05,3.625449608080089e-05
-3.8424677768489346e-05,2.7892072466784157e-05,-2.8666116122622043e-05,4.235888263792731e-05
-3.325917714391835e-05,-2.4849177862051874e-05,-2.5706907763378695e-05,4.800573151442222e-05
-2.8232394470251165e-05,-3.461856613284908e-05,-2.0300272808526643e-05,5.1830156735377386e-05
-2.608065915410407e-05,1.3007961570110638e-05,-1.579721356392838e-05,5.350754508981481e-05
-3.0426754165091552e-05,7.540525257354602e-05,-1.307140428252751e-05,5.48593707208056e-05
-3.635753091657534e-05,0.00011125582386739552,-1.0423037565487903e-05,5.6710086937528104e-05
-3.820522761088796e-05,0.00011699087190208957,-1.0064230991702061e-05,5.8122463087784126e-05
-3.669051511678845e-05,9.654759924160317e-05,-1.2081630302418489e-05,5.94658667978365e-05
-3.6784247640753165e-05,5.1473678468028083e-05,-1.4219903277989943e-05,5.838440119987354e-05
-3.781952545978129e-05,2.4480934371240437e-05,-1.7001540982164443e-05,5.5906919442350045e-05
-3.571582419681363e-05,6.096515789977275e-05,-1.5522588000749238e-05,5.78656981815584e-05
-3.29754693666473e-05,0.00010145809937966987,-9.2142772700754e-06,6.037428101990372e-05
-3.4398090065224096e-05,9.164129005512223e-05,-4.5671622501686215e-06,5.82903521717526e-05
-3.300066236988641e-05,0.00010736174590419978,-6.776342161174398e-06,5.501826308318414e-05
-2.3902775865281e-05,0.00018490318325348198,-1.1493613783386536e-05,5.9721842262661085e-05
-1.3682411918125581e-05,0.00020745012443512678,-1.3939858035882935e-05,6.840207788627595e-05
-9.02839565242175e-06,0.00011895185889443383,-1.4140326129563618e-05,6.972516712266952e-05
-1.2208680345793255e-05,-8.739645636524074e-06,-1.8419565094518475e-05,6.51742666377686e-05
-2.692549787752796e-05,-7.903783262008801e-05,-3.058076981687918e-05,5.942674397374503e-05
-4.349407026893459e-05,-8.978479309007525e-05,-3.985913281212561e-05,5.3765052143717185e-05
-4.7217523388098925e-05,-9.45467982091941e-05,-3.994865619461052e-05,4.537083805189468e-05
-3.610446583479643e-05,-7.141988317016512e-05,-2.8606615160242654e-05,4.2532188672339544e-05
-2.1007646864745766e-05,-3.979921984864632e-06,-1.5747893485240638e-05,4.733643072540872e-05
-1.173167947854381e-05,5.713679638574831e-05,-1.0114610631717369e-05,5.645111377816647e-05
-9.190138371195644e-06,8.054107456700876e-05,-8.882159818313085e-06,6.497935100924224e-05
-1.071770839189412e-05,0.00010349927470088005,-2.8176780233479803e-06,7.195665966719389e-05
-1.116631756303832e-05,0.00014769763220101595,8.188462743419223e-06,7.669153274036944e-05
-8.309540135087445e-06,0.0001868413237389177,1.549002990941517e-05,7.703890150878578e-05
-7.657735295651946e-06,0.00014660853776149452,1.3006235349166673e-05,7.47343510738574e-05
-1.8652761355042458e-05,-3.3162188628921285e-05,-1.9488065845507663e-06,6.521132308989763e-05
-3.980730252806097e-05,-0.0002901394327636808,-1.866214006440714e-05,5.114245504955761e-05
-5.493842763826251e-05,-0.0004512490995693952,-2.5523575459374115e-05,4.3595176975941285e-05
-5.539421908906661e-05,-0.0004170518077444285,-2.1509478756343015e-05,4.109084693482146e-05
-4.8541038268012926e-05,-0.00026043900288641453,-1.4588827980333008e-05,3.77999858756084e-05
-3.9025897422106937e-05,-0.00010328424104955047,-8.35463924886426e-06,4.207123492960818e-05
-3.105112773482688e-05,5.5394334594893735e-06,-3.981339887104696e-06,4.7852994612185284e-05
-2.5119297788478434e-05,5.56199811398983e-05,-2.4073501663224306e-06,4.7414690925506875e-05
-1.8834016373148188e-05,7.06006758264266e-05,-3.196720626874594e-06,4.2304371163481846e-05
-1.6014231732697226e-05,7.496754551539198e-05,-5.185630016057985e-06,3.743042179848999e-05
-1.807717308111023e-05,5.8561545301927254e-05,-6.150487934064586e-06,3.711670797201805e-05
-1.7636233678786084e-05,2.9898657885496505e-05,-7.103637472027913e-06,4.3130305130034685e-05
-1.3098671843181364e-05,1.356667598884087e-05,-7.065561021590838e-06,5.243495252216235e-05
-1.2082024113624357e-05,2.3891301680123433e-05,-5.1198362598370295e-06,5.994935781927779e-05
-1.495616561442148e-05,3.768385431612842e-05,-3.2893376555875875e-06,6.328734889393672e-05
-1.850180524343159e-05,4.6690445742569864e-05,7.739674456885837e-10,6.259535439312458e-05
-2.2701364287058823e-05,5.939433685853146e-05,4.504544449446257e-06,6.0578309785341844e-05
-2.4923372620833106e-05,6.593492435058579e-05,6.7917162596131675e-06,6.0002206737408414e-05
-2.783230593195185e-05,6.871575169498101e-05,3.753601731659728e-06,6.424388266168535e-05
-3.373020444996655e-05,8.168871136149392e-05,1.050661239787587e-06,6.890181248309091e-05
-3.224799002055079e-05,8.999017882160842e-05,-4.351548810177519e-08,7.151615136535838e-05
-2.6117331799468957e-05,8.264549978775904e-05,-1.4639202845501131e-06,7.34522909624502e-05
-2.416594907117542e-05,7.230023038573563e-05,-1.492747969678021e-06,7.524417742388323e-05
-2.7432297429186292e-05,6.677224882878363e-05,7.641176580364117e-07,7.58618552936241e-05
-2.781390503514558e-05,5.995309038553387e-05,1.0395150411568466e-06,7.437692693201825e-05
-2.1299681975506246e-05,5.543113002204336e-05,-3.181641886840225e-06,7.074280438246205e-05
