-4.474935485632159e-05,2.9538219678215683e-05,-3.2446721888845786e-05,3.0028280889382586e-05
-4.069193892064504e-05,3.1483792554354295e-05,-2.8240925530553795e-05,3.091846883762628e-05
-3.4437518479535356e-05,3.480436498648487e-05,-1.9052691641263664e-05,3.056975401705131e-05
-3.253529575886205e-05,3.768224996747449e-05,-1.84327618626412e-05,3.0550134397344664e-05
-3.636474866652861e-05,4.111873568035662e-05,-2.642728213686496e-05,2.9818240363965742e-05
-4.0479022572981194e-05,4.378015728434548e-05,-3.0349534426932223e-05,2.6175104721914977e-05
-3.7282057746779174e-05,4.4772201363230124e-05,-2.4985360141727142e-05,2.2568752683582716e-05
-3.2518073567189276e-05,4.225620432407595e-05,-1.7902877516462468e-05,2.375976873736363e-05
-3.3502106816740707e-05,3.711666795425117e-05,-1.650476042414084e-05,2.579511419753544e-05
-3.652009036159143e-05,3.524562998791225e-05,-1.8400696717435494e-05,2.630846393003594e-05
-3.9101490983739495e-05,3.506596840452403e-05,-1.8726308553596027e-05,2.514439074730035e-05
-4.1634491935838014e-05,3.337851012474857e-05,-1.781039645720739e-05,2.40511326410342e-05
-4.463314326130785e-05,3.1370011129183695e-05,-1.691551551630255e-05,2.541524918342475e-05
-4.596613871399313e-05,3.2853793527465314e-05,-1.7271691831410863e-05,2.5355931938975118e-05
-4.4344666093820706e-05,3.6020308471051976e-05,-1.830216933740303e-05,2.3200875148177147e-05
-4.330011870479211e-05,3.524131898302585e-05,-1.8386856027063914e-05,2.0758559912792407e-05
-4.692432048614137e-05,3.1075098377186805e-05,-1.727305971144233e-05,2.098641198244877e-05
-5.137595871929079e-05,3.058225047425367e-05,-1.773380245140288e-05,2.2817763237981126e-05
-5.44482099940069e-05,3.356544766575098e-05,-1.8451904907124117e-05,2.4426053641946055e-05
-5.710500045097433e-05,3.3607233490329236e-05,-1.8985094357049093e-05,2.6495003112358972e-05
-5.834066905663349e-05,3.0858765967423096e-05,-2.093038710881956e-05,2.8766844479832798e-05
-5.822316597914323e-05,2.9220069336588494e-05,-2.384909021202475e-05,2.89021718344884e-05
-5.696131847798824e-05,2.8726399250444956e-05,-2.73412460956024e-05,2.868706542358268e-05
-5.5862688896013424e-05,2.8420701710274443e-05,-3.0026392778381705e-05,2.97213664453011e-05
-5.3759998991154134e-05,2.8766200557583943e-05,-3.109841782134026e-05,2.8724689400405623e-05
-4.9629259592620656e-05,2.6727511794888414e-05,-3.1406387279275805e-05,2.318410224688705e-05
-4.723346864921041e-05,2.2607026039622724e-05,-3.231202208553441e-05,1.8465232642483898e-05
-4.9141883209813386e-05,2.123742706316989e-05,-2.817706626956351e-05,1.6165655324584804e-05
-5.090467311674729e-05,1.942240669450257e-05,-2.4151715479092672e-05,1.6555060938117094e-05
-5.080271512269974e-05,1.656452877796255e-05,-2.4091532395686954e-05,2.0205385226290673e-05
-4.908839036943391e-05,1.6725374734960496e-05,-2.0793513613170944e-05,2.2511610950459726e-05
-4.6836335968691856e-05,2.1494377506314777e-05,-2.051905721600633e-05,2.561218207119964e-05
-4.951470691594295e-05,2.94453766400693e-05,-2.0232302631484345e-05,2.6470648663234897e-05
-5.5684897233732045e-05,3.5642075090436265e-05,-2.0773308278876357e-05,2.8053515052306466e-05
-5.533537841984071e-05,3.670523801702075e-05,-2.2969668862060644e-05,3.0329918445204385e-05
-5.219889135332778e-05,3.515547723509371e-05,-2.6280358724761754e-05,2.7797625079983845e-05
-5.1442955737002194e-05,3.1870771636022255e-05,-2.8998461857554503e-05,2.3005681214272045e-05
-5.2014991524629295e-05,2.6512614567764103e-05,-3.015221591340378e-05,1.9310571587993763e-05
-5.4667991207679734e-05,2.427217441436369e-05,-3.0517048799083568e-05,1.5535766578977928e-05
-5.9242320276098326e-05,2.9400143830571324e-05,-2.765484168776311e-05,1.243776387127582e-05
-6.323037814581767e-05,3.7015688576502725e-05,-2.2208865630091168e-05,1.26331515275524e-05
-6.241341907298192e-05,4.147007712163031e-05,-1.6896867236937396e-05,1.474132568546338e-05
-5.84044901188463e-05,3.8365549698937684e-05,-1.6763473468017764e-05,1.580251773702912e-05
-5.308735853759572e-05,2.8035914510837756e-05,-1.775032069417648e-05,1.5982825061655603e-05
-4.590423122863285e-05,2.0471628886298276e-05,-1.898834489111323e-05,1.7201571608893573e-05
-3.857540286844596e-05,2.2558082491741516e-05,-2.2257625460042618e-05,1.9922757928725332e-05
-3.775547884288244e-05,3.0491239158436656e-05,-2.3956257791724056e-05,2.3454964320990257e-05
-4.441726559889503e-05,3.7424018955789506e-05,-2.1739278963650577e-05,2.506445161998272e-05
-5.1099144911859185e-05,3.770637704292312e-05,-2.0945457436027937e-05,2.5906059818225913e-05
-5.5476448324043304e-05,2.780638897093013e-05,-1.9658256860566325e-05,2.731567292357795e-05
-5.99941449763719e-05,1.7265756468987092e-05,-1.624139076739084e-05,3.11254189000465e-05
-6.483370088972151e-05,1.460222301830072e-05,-1.305648675042903e-05,3.2125328289112076e-05
-6.411337380995974e-05,1.4699237908644136e-05,-1.4280521099863108e-05,3.05743669741787e-05
-5.976862303214148e-05,1.576845534145832e-05,-2.112360562023241e-05,3.3010630431817845e-05
-5.7145323808072135e-05,2.0712719560833648e-05,-2.8149406716693193e-05,3.4008986403932795e-05
-5.363145101000555e-05,2.4286699044751003e-05,-2.6657997295842506e-05,3.159710468025878e-05
-5.140624489285983e-05,2.1909756469540298e-05,-2.4458588086417876e-05,3.100684625678696e-05
-5.012559631722979e-05,1.7434804249205627e-05,-2.932345523731783e-05,2.985932405863423e-05
-5.002404213882983e-05,1.7443046090193093e-05,-3.5270346415927634e-05,2.47273037530249e-05
-5.28378295712173e-05,2.1453934095916338e-05,-3.874526373692788e-05,1.9773275198531337e-05
-5.9230187616776675e-05,2.6189061827608384e-05,-4.0754621295491233e-05,1.7619322534301318e-05
-6.211447907844558e-05,3.082288822042756e-05,-4.316063495934941e-05,1.9653905837913044e-05
-5.7060777180595323e-05,3.5969362215837464e-05,-4.269223427399993e-05,2.1753356122644618e-05
-5.004496779292822e-05,3.994282815256156e-05,-4.429707405506633e-05,2.2475742298411205e-05
-4.977205389877781e-05,4.276349500287324e-05,-4.639869075617753e-05,2.3635737306904048e-05
-5.495496225194074e-05,4.385503052617423e-05,-4.4307304051471874e-05,2.53136004175758e-05
-5.7463414123049006e-05,4.151551183895208e-05,-3.704676782945171e-05,2.6918642106465995e-05
-5.589769352809526e-05,3.767130692722276e-05,-2.9613102014991455e-05,2.682499325601384e-05
-4.958654608344659e-05,3.557194213499315e-05,-2.449920430080965e-05,2.5341530999867246e-05
-4.323010580264963e-05,3.470549199846573e-05,-2.237071021227166e-05,2.221326212747954e-05
-4.239385816617869e-05,3.222557279514149e-05,-2.2292759240372106e-05,2.0587429389706813e-05
-4.6296485379571095e-05,3.145610025967471e-05,-2.2021622498868965e-05,2.135111571988091e-05
-4.8120135033968836e-05,3.5010121791856363e-05,-1.9923743820982054e-05,2.2113248633104376e-05
-4.621992411557585e-05,3.803782965405844e-05,-1.6003161363187246e-05,2.1285903130774386e-05
-4.281929795979522e-05,3.513283809297718e-05,-1.3914535884396173e-05,1.973214057215955e-05
-3.983107671956532e-05,2.897308877436444e-05,-1.3059197044640314e-05,1.8304937839275226e-05
-3.596926399040967e-05,2.6638692361302674e-05,-1.3833742741553579e-05,1.615329529158771e-05
-3.4638778743101284e-05,3.178033512085676e-05,-1.9191900719306432e-05,1.3004451830056496e-05
-3.829559136647731e-05,3.910972009180114e-05,-2.2649655875284225e-05,1.1540215382410679e-05
-4.181150870863348e-05,4.2358937207609415e-05,-2.1318255676305853e-05,1.1961623386014253e-05
-4.2094834498129785e-05,4.256029933458194e-05,-2.0690840756287798e-05,1.218240231537493e-05
-4.012366116512567e-05,4.0970386180561036e-05,-2.3456665076082572e-05,9.714154657558538e-06
-3.593107612687163e-05,3.5901986848330125e-05,-2.4493989258189686e-05,1.2165683074272238e-05
-3.297780131106265e-05,2.8770573408110067e-05,-2.383154605922755e-05,1.7203234165208414e-05
-3.453476165304892e-05,2.0153276636847295e-05,-2.5520545023027807e-05,2.0158982806606218e-05
-3.7457895814441144e-05,1.5576482837786898e-05,-2.5570345314918086e-05,2.329038761672564e-05
-4.0569597331341356e-05,1.7543725334689952e-05,-2.8634516638703644e-05,2.263592614326626e-05
-4.358289152150974e-05,2.0409926946740597e-05,-3.139986074529588e-05,2.2099207853898406e-05
-4.82118921354413e-05,1.8210414054919966e-05,-3.383955845492892e-05,2.2592266759602353e-05
-5.4617914429400116e-05,1.2323379451117944e-05,-3.378087785677053e-05,2.3695136405876838e-05
-5.9699574194382876e-05,1.2524777957878541e-05,-3.297927833045833e-05,2.357638004468754e-05
-5.9438676544232294e-05,2.147817394870799e-05,-3.2938565709628165e-05,2.42546357185347e-05
-5.360317663871683e-05,3.4497457818361e-05,-3.184262095601298e-05,2.758103801170364e-05
-4.783625263371505e-05,4.5817541831638664e-05,-2.80188032775186e-05,3.0419338145293295e-05
-4.890212949248962e-05,5.484989014803432e-05,-2.3019694708636962e-05,2.993017369590234e-05
-5.3902276704320684e-05,6.363444117596373e-05,-2.1703557649743743e-05,3.087696313741617e-05
-5.671086910297163e-05,6.796107481932268e-05,-2.388170651101973e-05,3.1769635825185105e-05
-5.6407279771519825e-05,6.318993109744042e-05,-2.5863339033094235e-05,2.768860758806113e-05
-5.584103928413242e-05,5.240226528258063e-05,-2.678153214219492e-05,2.4146300347638316e-05
-5.566114487010054e-05,4.2724939703475684e-05,-2.742571450653486e-05,2.3804021111573093e-05
-5.4718577302992344e-05,3.915443812729791e-05,-2.3231370505527593e-05,2.229857818747405e-05
-5.500761471921578e-05,3.742845365195535e-05,-1.867052742454689e-05,2.1311194359441288e-05
-5.784826498711482e-05,3.0660037737106904e-05,-1.7725695215631276e-05,2.41524994635256e-05
-6.06455905654002e-05,2.3179307390819304e-05,-2.1231217033346184e-05,2.732624670898076e-05
-6.0090569604653865e-05,2.3421300284098834e-05,-2.4847748136380687e-05,2.7797907023341395e-05
-5.4830932640470564e-05,3.0154193154885434e-05,-2.6465821065357886e-05,2.6150761186727323e-05
-5.014470298192464e-05,3.7383779272204265e-05,-2.599571962491609e-05,2.8485135771916248e-05
-5.084779695607722e-05,3.7776437238790095e-05,-2.6977368179359473e-05,3.294005728093907e-05
-5.3761410526931286e-05,2.9653121600858867e-05,-2.650644637469668e-05,3.2338419259758666e-05
-5.429083466879092e-05,1.9627401343313977e-05,-2.5641276806709357e-05,2.4876186216715723e-05
-5.171606608200818e-05,1.3873434909328353e-05,-2.8156131520518102e-05,2.085234154947102e-05
-5.100011912873015e-05,1.1881069440278225e-05,-3.096280852332711e-05,2.2275466108112596e-05
-5.2066192438360304e-05,1.0513454981264658e-05,-3.440965883783065e-05,2.2738686311640777e-05
-5.2659841458080336e-05,1.3262526408652775e-05,-3.63587387255393e-05,2.3083977794158272e-05
-5.089756814413704e-05,1.871722997748293e-05,-3.676149935927242e-05,2.428862535452936e-05
-4.858742613578215e-05,2.2333228116622195e-05,-3.763303902815096e-05,2.7064232199336402e-05
-4.863645153818652e-05,2.197181311203167e-05,-3.93438313039951e-05,3.011892295035068e-05
-5.037254959461279e-05,1.873998553492129e-05,-3.962359551223926e-05,3.04975710605504e-05
-5.1786715630441904e-05,1.563908335810993e-05,-3.8629175833193585e-05,2.9437060220516287e-05
-5.2675779443234205e-05,1.984003210964147e-05,-3.785171065828763e-05,2.9592516511911526e-05
-5.422451795311645e-05,3.0147377401590347e-05,-3.4755325032165274e-05,2.825586125254631e-05
-5.5167700338643044e-05,2.97745118587045e-05,-3.291705797892064e-05,2.6526149667915888e-05
-5.541813516174443e-05,1.4486855434370227e-05,-3.429618664085865e-05,2.6931005777441896e-05
-5.485702058649622e-05,-4.127245574636618e-06,-3.6671142879640684e-05,2.7258265618002042e-05
-5.503635838977061e-05,-1.2807489838451147e-05,-3.7904392229393125e-05,2.6418380002724007e-05
-5.648600563290529e-05,-4.372525381768355e-06,-3.837487020064145e-05,2.5427758373552933e-05
-5.442652400233783e-05,1.798883022274822e-05,-3.863760139211081e-05,2.574938116595149e-05
-4.701230500359088e-05,4.167741280980408e-05,-3.690979792736471e-05,2.7251297069597058e-05
-4.028520197607577e-05,5.7908062444766983e-05,-3.525566353346221e-05,2.836011663021054e-05
-4.132076719542965e-05,6.818801921326667e-05,-3.459315485088155e-05,2.9938213629066013e-05
-4.934189928462729e-05,7.958581409184262e-05,-3.151153214275837e-05,3.095030115218833e-05
-5.587739360635169e-05,9.513676195638254e-05,-2.788077836157754e-05,2.9018105124123394e-05
-5.6538836361141875e-05,0.00010813494736794382,-2.8980899514863268e-05,2.6892837922787294e-05
-5.305896411300637e-05,0.0001054138338076882,-2.9845316021237522e-05,2.862430665118154e-05
-4.896645259577781e-05,8.731345587875694e-05,-2.7107977075502276e-05,3.12574629788287e-05
-4.900687781628221e-05,6.232779560377821e-05,-2.4621422198833898e-05,2.631372080941219e-05
-5.1567119953688234e-05,4.712627924163826e-05,-2.7458259864943102e-05,1.902189433167223e-05
-4.6145876694936305e-05,3.664834366645664e-05,-3.0275879908003844e-05,1.7983422367251478e-05
-3.7765315937576815e-05,1.389982207911089e-05,-2.772863626887556e-05,1.699582026049029e-05
-3.305782229290344e-05,-3.7232960039546015e-06,-2.4363762349821627e-05,1.6909292753553018e-05
-3.1126208341447636e-05,-3.695438863360323e-06,-2.0280467651900835e-05,1.9869819880113937e-05
-3.1194733310258016e-05,1.1530282790772617e-05,-1.5377707313746214e-05,2.0001622033305466e-05
-3.4317847166676074e-05,3.2628366170683876e-05,-1.4442658539337572e-05,1.8927803466795012e-05
-4.4314132537692785e-05,5.042316115577705e-05,-1.7329233742202632e-05,1.842485653469339e-05
-5.4195461416384205e-05,5.1789615099551156e-05,-1.7879967344924808e-05,1.848579449870158e-05
-6.0415542975533754e-05,3.858426134684123e-05,-1.831987901823595e-05,1.935874024638906e-05
-6.564368959516287e-05,2.7354104531696066e-05,-2.1263198505039327e-05,2.1199422917561606e-05
-7.133856706786901e-05,2.8974860470043495e-05,-2.2974969397182576e-05,2.1685229512513615e-05
-7.077951886458322e-05,3.708763688337058e-05,-2.062905150523875e-05,2.0235864212736487e-05
-6.47806009510532e-05,4.0435228584101424e-05,-1.88887588592479e-05,1.8342832845519297e-05
-6.146056693978608e-05,3.981627742177807e-05,-2.363900057389401e-05,1.82607564056525e-05
-6.197664333740249e-05,3.800303238676861e-05,-2.9257989808684215e-05,2.077940371236764e-05
-5.987938493490219e-05,3.4866166970459744e-05,-2.8642543838941492e-05,2.224015406682156e-05
-5.415614214143716e-05,3.1873074476607144e-05,-2.254198625450954e-05,2.2692511265631765e-05
-4.873151192441583e-05,3.191598443663679e-05,-1.7475076674600132e-05,2.3198141207103617e-05
-4.638588507077657e-05,3.178805854986422e-05,-1.5593645002809353e-05,2.330063216504641e-05
-4.552112295641564e-05,3.1548403057968244e-05,-1.5187214557954576e-05,2.2415340936277062e-05
-4.287532647140324e-05,3.146088056382723e-05,-1.5304376574931666e-05,2.1783755073556677e-05
-4.377010918688029e-05,3.2976680813590065e-05,-1.702118788671214e-05,2.145736652892083e-05
-4.823930066777393e-05,3.444781032158062e-05,-1.9311510186525993e-05,2.1141617253306322e-05
-5.105296440888196e-05,3.3913856896106154e-05,-1.9841814719256945e-05,2.1190846382523887e-05
-4.7255449317162856e-05,3.202568768756464e-05,-1.8533442926127464e-05,2.5795312467380427e-05
-4.156773866270669e-05,2.9480552257155068e-05,-2.241810034320224e-05,3.172724609612487e-05
-3.994386861450039e-05,2.482515810697805e-05,-2.9329346943995915e-05,3.4249085729243234e-05
-4.3195064790779725e-05,2.0342047719168477e-05,-2.9563589123426937e-05,3.581432611099444e-05
-4.918895137961954e-05,1.660913767409511e-05,-2.640190359670669e-05,3.259900404373184e-05
-5.235768185229972e-05,1.4048974662728142e-05,-2.2320935386233032e-05,2.8945656595169567e-05
-5.1715800509555265e-05,1.6623720512143336e-05,-2.2254524083109573e-05,2.746069549175445e-05
-4.974658804712817e-05,2.2509426344186068e-05,-2.735113594098948e-05,2.642876461322885e-05
-5.2522031182888895e-05,3.0250126656028442e-05,-3.0400567993638106e-05,2.4754130208748393e-05
-5.793971649836749e-05,3.473072501947172e-05,-3.3723867090884596e-05,2.099505945807323e-05
-5.6235345255117863e-05,3.395211751922034e-05,-3.460224615992047e-05,2.044919710897375e-05
-5.107005199533887e-05,3.473156539257616e-05,-3.0134639018797316e-05,2.2063000869820826e-05
-4.5903303544037044e-05,3.883865429088473e-05,-2.5299907065345906e-05,2.322328873560764e-05
-4.262875881977379e-05,4.343197724665515e-05,-2.4252703951788135e-05,2.5037281375261955e-05
-4.303621972212568e-05,4.6341479901457205e-05,-2.4632516215206124e-05,2.961150858027395e-05
-4.357450234238058e-05,4.780297604156658e-05,-2.296509046573192e-05,3.223552630515769e-05
-4.0409344364888966e-05,4.5204324123915285e-05,-2.201790084654931e-05,2.9381824788288213e-05
-3.726424620253965e-05,3.892531094606966e-05,-2.220099668193143e-05,2.3571448764414527e-05
-3.994560393039137e-05,3.657065099105239e-05,-2.2118787455838174e-05,2.0075411157449707e-05
-4.5164306357037276e-05,4.067236659466289e-05,-1.982390858756844e-05,1.931961378431879e-05
-4.991154128219932e-05,4.351019379100762e-05,-1.661374517425429e-05,1.787709516065661e-05
-5.3501200454775244e-05,3.8342470361385494e-05,-1.6591742678429e-05,1.6880876501090825e-05
-5.212912583374418e-05,3.127321906504221e-05,-1.9834724298561923e-05,1.764106855262071e-05
-4.7866789827821776e-05,2.7657784812618047e-05,-2.356981349294074e-05,2.0364870579214767e-05
-4.65905322926119e-05,2.7244474040344357e-05,-2.7606078219832852e-05,2.2607628125115298e-05
-4.829423414776102e-05,2.858053812815342e-05,-2.932533243438229e-05,2.1822737835464068e-05
-5.354201857699081e-05,2.9093371267663315e-05,-2.7993561161565594e-05,1.971629899344407e-05
-6.196750473463908e-05,2.4300972654600628e-05,-2.619801671244204e-05,1.770586459315382e-05
-6.690763984806836e-05,1.593615706951823e-05,-2.4730416043894365e-05,1.580325078975875e-05
-6.146773375803605e-05,1.3074375601718202e-05,-2.598203172965441e-05,1.824824903451372e-05
-5.418877844931558e-05,1.2936861821799539e-05,-2.769016646197997e-05,2.1544070477830246e-05
-5.294926813803613e-05,1.0323814422008581e-05,-2.6052690373035148e-05,2.3370530470856465e-05
-5.731108831241727e-05,6.151191428216407e-06,-2.388879693171475e-05,2.5956684112315997e-05
-6.0063335695303977e-05,6.177557224873453e-06,-2.1554755221586674e-05,2.731198037508875e-05
-5.6295586546184495e-05,1.1887758773809765e-05,-1.7137381291831844e-05,2.4169434254872613e-05
-5.328657425707206e-05,1.7915835996973328e-05,-1.431033160770312e-05,1.8570182874100283e-05
-5.434709237306379e-05,2.2004656784702092e-05,-1.691240686341189e-05,1.5720317605882883e-05
-5.567452899413183e-05,2.3314236386795528e-05,-1.7906066204886883e-05,1.5086056919244584e-05
-5.493900607689284e-05,2.791496444842778e-05,-1.7421045413357206e-05,1.3128092177794315e-05
-5.355077519197948e-05,3.9991071389522403e-05,-1.7646305423113517e-05,9.282906830776483e-06
-5.1872011681552976e-05,5.83831497351639e-05,-1.826533116400242e-05,8.513316060998477e-06
-5.074710861663334e-05,7.313686364796013e-05,-1.9101271391264163e-05,1.2867348232248332e-05
-5.1867511501768604e-05,7.487410766771063e-05,-2.2782534870202653e-05,1.9221091861254536e-05
-5.488409078679979e-05,6.036549530108459e-05,-2.714870970521588e-05,2.3166001483332366e-05
-5.627370410365984e-05,3.187543188687414e-05,-2.5107867259066552e-05,2.33744467550423e-05
-5.5011551012285054e-05,1.5466055174329085e-06,-2.061629311356228e-05,2.2537469703820534e-05
-5.1510876801330596e-05,-1.473050633649109e-05,-1.8232811271445826e-05,2.2448717572842725e-05
-4.864761285716668e-05,-1.3849218703398947e-05,-1.559855809318833e-05,2.287211646034848e-05
-4.895815800409764e-05,-4.450768756214529e-06,-9.04620628716657e-06,2.3040052838041447e-05
-4.482949952944182e-05,3.403995833650697e-06,-2.200468088631169e-06,2.0957557353540324e-05
-3.650958387879655e-05,7.88678244134644e-06,2.5267320324928733e-06,1.9553017409634776e-05
-3.7171463191043586e-05,1.566750324855093e-05,4.587493833696499e-07,1.9627286746981554e-05
-4.480313873500563e-05,3.0116441848804243e-05,-8.490270374750253e-06,1.878210241557099e-05
-4.7819983592489734e-05,4.55560875707306e-05,-1.7340378690278158e-05,1.7413636669516563e-05
-4.47355087089818e-05,5.104378578835167e-05,-2.566473813203629e-05,2.0001563825644553e-05
-3.9642654883209616e-05,5.560414138017222e-05,-3.385144009371288e-05,2.6945266654365696e-05
-3.813772855210118e-05,7.144809933379292e-05,-3.678853317978792e-05,3.045962512260303e-05
-3.735139034688473e-05,9.173824219033122e-05,-4.013325451523997e-05,3.1624007533537224e-05
-3.794700023718178e-05,9.792517812456936e-05,-4.442132922122255e-05,2.9680222723982297e-05
-4.728657586383633e-05,8.737338066566736e-05,-4.110305235371925e-05,2.6842426450457424e-05
-5.3474781452678144e-05,7.212559285108e-05,-3.23553649650421e-05,2.6088160666404292e-05
-5.111143764224835e-05,5.6678851251490414e-05,-2.5762188670341857e-05,2.691749978112057e-05
-4.8067075113067403e-05,4.1783911001402885e-05,-2.3443595637218095e-05,2.892221527872607e-05
-4.787826765095815e-05,2.9089622330502607e-05,-2.7018642867915332e-05,3.0381546821445227e-05
-4.9239843065151945e-05,1.951947524503339e-05,-3.038315480807796e-05,3.3192449336638674e-05
-4.831798287341371e-05,1.1990896382485516e-05,-3.0356342904269695e-05,3.830908826785162e-05
-4.5858418161515146e-05,6.3205666265275795e-06,-3.0028772016521543e-05,3.994588405475952e-05
-4.547585194814019e-05,1.7265782616959768e-06,-2.7778645744547248e-05,3.731903052539565e-05
-4.8906425945460796e-05,-3.1421373591911106e-07,-2.722774115682114e-05,3.379852569196373e-05
-4.978194192517549e-05,2.1393866518337745e-06,-2.8870883397758007e-05,3.296620707260445e-05
-4.876424281974323e-05,8.679267011757474e-06,-3.262539757997729e-05,3.6872486816719174e-05
-4.872944191447459e-05,1.5511115634581074e-05,-3.7278805393725634e-05,4.091965456609614e-05
-4.797918882104568e-05,2.244795541628264e-05,-3.994084181613289e-05,4.058207559864968e-05
-4.5698718167841434e-05,3.444533285801299e-05,-3.7149573472561315e-05,3.5746976209338754e-05
-4.5036329538561404e-05,4.909051494905725e-05,-3.072331674047746e-05,3.102023765677586e-05
-4.43524077127222e-05,5.7699497119756415e-05,-2.6491719836485572e-05,2.8229967938386835e-05
-4.290236392989755e-05,6.152394053060561e-05,-2.4778084480203688e-05,2.7048670744989067e-05
-4.545390765997581e-05,6.458893039962277e-05,-2.263452552142553e-05,2.5969728085328825e-05
-5.40743421879597e-05,7.017880125204101e-05,-2.2574507966055535e-05,2.674426832527388e-05
-6.08446316618938e-05,7.468492549378425e-05,-2.427100480417721e-05,2.8332822694210336e-05
-5.818564386572689e-05,6.348082388285547e-05,-2.5827413992374204e-05,2.56127259490313e-05
-5.080801565782167e-05,4.2831805330934e-05,-2.7743755708797835e-05,2.262655289086979e-05
-4.4180043914821e-05,2.9069880838505924e-05,-3.054377521038987e-05,2.0406954718055204e-05
-4.324656765675172e-05,2.7519845389178954e-05,-3.145395021419972e-05,2.041273910435848e-05
-4.019197149318643e-05,3.190365168848075e-05,-2.6754105419968255e-05,2.5961729988921434e-05
-3.828483750112355e-05,3.124386057606898e-05,-2.4455119273625314e-05,2.815150401147548e-05
-4.2372044845251366e-05,2.6026971681858413e-05,-2.493792817404028e-05,2.6170240744249895e-05
-4.715430623036809e-05,2.396700620010961e-05,-2.3546250304207206e-05,2.2512322175316513e-05
-5.031492401030846e-05,2.368838613620028e-05,-1.7780927009880543e-05,2.1154428395675495e-05
-5.0998347433051094e-05,2.4046721591730602e-05,-1.1644864571280777e-05,2.1835514417034574e-05
-5.350908395485021e-05,2.908397073042579e-05,-1.29778300106409e-05,2.299367406521924e-05
-5.2086892537772655e-05,3.5160654078936204e-05,-1.717794111755211e-05,2.313751247129403e-05
-4.746380727738142e-05,3.5827244573738426e-05,-2.139820935553871e-05,2.3157268515205942e-05
-4.606872607837431e-05,3.552201087586582e-05,-2.574362042651046e-05,2.5067127353395335e-05
-4.4355223508318886e-05,3.9236037991940975e-05,-3.1264371500583366e-05,2.8926304366905242e-05
-4.159019954386167e-05,4.2500887502683327e-05,-3.503098196233623e-05,3.305363134131767e-05
-4.197592716081999e-05,4.224056101520546e-05,-3.611633655964397e-05,3.5989436582894996e-05
-4.420350524014793e-05,3.705428753164597e-05,-3.88454100175295e-05,3.630898936535232e-05
-4.418552998686209e-05,3.1688978197053075e-05,-4.2756972106872126e-05,3.3866082958411425e-05
-4.281803558114916e-05,3.4004708140855655e-05,-4.361681567388587e-05,3.223539897589944e-05
-4.185532088740729e-05,3.932317122234963e-05,-4.045402238261886e-05,3.0510440410580486e-05
-4.282483132556081e-05,3.850645953207277e-05,-3.68313085346017e-05,2.9049413569737226e-05
-4.455211092135869e-05,3.161714630550705e-05,-3.234504765714519e-05,2.8108219339628704e-05
-4.492163861868903e-05,2.054030483122915e-05,-2.7750194931286387e-05,2.5454583010287024e-05
-4.6296911023091525e-05,1.0454333278175909e-05,-2.4802362531772815e-05,2.1717973140766844e-05
-5.1107999752275646e-05,8.297238309751265e-06,-2.4086531993816607e-05,2.700184086279478e-05
-5.630032319459133e-05,1.3619885976368096e-05,-2.5955512683140114e-05,3.1804273021407425e-05
-5.5723587138345465e-05,2.0119243345106952e-05,-2.9087927032378502e-05,2.9083972549415193e-05
-4.9806487368186936e-05,2.1404650397016667e-05,-3.0552033422281966e-05,2.493363354005851e-05
-4.837846790906042e-05,1.8064800315187313e-05,-2.9973512937431224e-05,2.2428470401791856e-05
-5.446091745398007e-05,1.5896372133283876e-05,-3.14528624585364e-05,2.14292904274771e-05
-6.124773062765598e-05,1.6818157746456563e-05,-3.405009920243174e-05,2.043901986326091e-05
-6.183188816066831e-05,1.9316301404614933e-05,-3.2702231692383066e-05,2.0038294678670354e-05
-5.872023029951379e-05,2.2865657228976488e-05,-3.0331293601193465e-05,1.84713389899116e-05
-5.498162136063911e-05,2.7335170670994557e-05,-2.7733285605791025e-05,1.643450559640769e-05
-5.232020339462906e-05,2.8693517378997058e-05,-2.3315526050282642e-05,1.610927029105369e-05
-5.1518796681193635e-05,2.4567596483393572e-05,-2.2514401280204765e-05,1.891832289402373e-05
-5.188231443753466e-05,2.127923653461039e-05,-2.558665073593147e-05,1.983576839847956e-05
-5.6155873608076945e-05,1.9948147382820025e-05,-2.4937637135735713e-05,1.7436444977647625e-05
-5.934836372034624e-05,1.7742062482284382e-05,-2.3928017981234007e-05,1.5927516869851388e-05
-5.975562453386374e-05,1.6998776118271053e-05,-2.649884481797926e-05,1.5257359336828813e-05
-6.02088330197148e-05,1.9488750695018098e-05,-2.7189445972908288e-05,1.3335304174688645e-05
-6.0804646636825055e-05,2.4123626644723117e-05,-2.4882749130483717e-05,1.0541474694036879e-05
-5.9189471357967705e-05,2.6200834327028133e-05,-2.245560426672455e-05,8.820734365144745e-06
-5.6671844504307956e-05,2.4483882953063585e-05,-2.1142830519238487e-05,9.137193046626635e-06
-5.43681308045052e-05,2.36306350416271e-05,-2.233973100373987e-05,1.0725198990257923e-05
-5.191184754949063e-05,2.852261604857631e-05,-2.5877076041069813e-05,1.1936617738683708e-05
-5.070964471087791e-05,3.492637915769592e-05,-2.5308469048468396e-05,1.4267731785366777e-05
-5.049730316386558e-05,3.604786252253689e-05,-2.1887333787162788e-05,1.8718950741458684e-05
-4.986552448826842e-05,3.178117913194001e-05,-2.1226882381597534e-05,2.279701584484428e-05
-4.9469483201391995e-05,2.672184564289637e-05,-2.0510164176812395e-05,2.2091313439887017e-05
-5.190143201616593e-05,2.331662835786119e-05,-1.8223514416604303e-05,1.9271661585662514e-05
-5.5953878472791985e-05,2.3795353627065197e-05,-1.6571835658396594e-05,1.957923268491868e-05
-5.718601823900826e-05,2.6783965950016864e-05,-1.653789331612643e-05,2.106083047692664e-05
-5.381314258556813e-05,2.8887619919260032e-05,-1.8274087778991088e-05,2.122489968314767e-05
-4.645295484806411e-05,3.352855856064707e-05,-1.800345125957392e-05,2.108410990331322e-05
-4.038070255774073e-05,3.36571283696685e-05,-1.6462470739497803e-05,2.177834539907053e-05
-3.826350803137757e-05,3.038407703570556e-05,-1.6438150851172395e-05,2.1856269086129032e-05
-3.8541100366273895e-05,3.017883500433527e-05,-1.9117051124339923e-05,2.232203769381158e-05
-4.328458453528583e-05,3.330374602228403e-05,-2.320609928574413e-05,2.4116885469993576e-05
-4.90010752400849e-05,3.679364454001188e-05,-2.6372652428108267e-05,2.3392347429762594e-05
-5.0843136705225334e-05,3.698495856951922e-05,-2.9261413146741688e-05,2.165969090128783e-05
-4.827480734093115e-05,3.715983984875493e-05,-3.0580406018998474e-05,1.8677203115657903e-05
-4.896727477898821e-05,4.068125781486742e-05,-2.9214204914751463e-05,1.2513642104750033e-05
-5.588551357504912e-05,4.51265113952104e-05,-3.005440885317512e-05,1.0137938261323143e-05
-5.926054291194305e-05,4.4159096432849765e-05,-3.489581649773754e-05,1.0692100659071002e-05
-5.312304710969329e-05,3.6228848330210894e-05,-3.814894807874225e-05,1.1971379535680171e-05
-4.2639188905013725e-05,2.9145317967049778e-05,-3.731721517397091e-05,1.4341308087750804e-05
-3.477018981357105e-05,3.0537747079506516e-05,-3.290228414698504e-05,1.4175219803291839e-05
-3.379164991201833e-05,3.345959339640103e-05,-2.9122282285243273e-05,1.2717541721940506e-05
-3.797812678385526e-05,3.2018851925386116e-05,-2.661897633515764e-05,1.4049379387870431e-05
-4.46803642262239e-05,2.7207152015762404e-05,-2.548896736698225e-05,1.5803883798071183e-05
-4.994921255274676e-05,2.3457352654077113e-05,-2.4628378014313057e-05,1.678600165178068e-05
-5.07265176565852e-05,2.4172995836124755e-05,-2.405622035439592e-05,1.7757705791154876e-05
-4.9161848437506706e-05,2.953936746052932e-05,-2.329543167434167e-05,1.8426730093779042e-05
-4.846908996114507e-05,3.679869041661732e-05,-2.1209365513641387e-05,1.8840752090909518e-05
-4.9310994654661044e-05,4.438346149981953e-05,-1.9337294361321256e-05,2.0723726265714504e-05
-5.069035614724271e-05,4.748543506138958e-05,-1.9580073058023117e-05,2.5538538466207683e-05
-5.303218131302856e-05,4.429758701007813e-05,-2.1523581381188706e-05,3.1595511245541275e-05
-5.50409677089192e-05,4.1629173210822046e-05,-2.5205879865097813e-05,3.55354422936216e-05
-5.374116517486982e-05,4.256959437043406e-05,-2.8830047085648403e-05,3.368264151504263e-05
-4.8207399231614545e-05,4.502279989537783e-05,-2.8364453100948595e-05,2.8458860469982028e-05
-4.8150071961572394e-05,4.588679439621046e-05,-2.556246727181133e-05,2.610240517242346e-05
-5.026536382501945e-05,4.5216092985356227e-05,-2.4562217731727287e-05,2.3671056624152698e-05
-5.4243810154730454e-05,4.617181184585206e-05,-2.7841280825668946e-05,2.3286160285351798e-05
-5.7215849665226415e-05,4.8073929065139964e-05,-2.7585256248130463e-05,2.5332852601422928e-05
-5.624497134704143e-05,4.6325581934070215e-05,-2.7439615223556757e-05,2.8019785531796515e-05
-5.810070433653891e-05,4.127083593630232e-05,-2.814795334415976e-05,3.1221214157994837e-05
-5.975690146442503e-05,3.564584767445922e-05,-2.668816341611091e-05,3.0006422093720175e-05
-6.198324990691617e-05,3.212321826140396e-05,-2.8183296308270656e-05,2.9545783036155626e-05
-6.087989459047094e-05,2.8111860956414603e-05,-3.0852861527819186e-05,2.8875838324893266e-05
-6.04395754635334e-05,2.7011043130187318e-05,-3.0980718292994425e-05,2.8725255106110126e-05
-6.006284093018621e-05,2.458253402437549e-05,-2.948661131085828e-05,2.7347286959411576e-05
-5.84189074288588e-05,2.0993749785702676e-05,-3.146311064483598e-05,2.573762321844697e-05
-5.6075605243677273e-05,2.386716914770659e-05,-3.445281618041918e-05,2.62397534243064e-05
-5.494551805895753e-05,2.9382292268564925e-05,-3.4471657272661105e-05,2.7320829758537002e-05
-5.698435415979475e-05,3.076728535233997e-05,-3.352523344801739e-05,2.6534951757639647e-05
-5.80626365263015e-05,2.6944439014187083e-05,-3.4453005355317146e-05,2.5957591788028367e-05
-5.692094055120833e-05,2.3203136152005754e-05,-3.460059087956324e-05,2.9644286769325845e-05
-5.503400097950362e-05,2.3388207409880124e-05,-3.127599848085083e-05,3.4183511161245406e-05
-5.315061571309343e-05,2.9713330150116235e-05,-2.621176463435404e-05,3.4751396015053615e-05
-4.9827278417069465e-05,3.663220923044719e-05,-2.5258446839870885e-05,3.1778730772202834e-05
-4.861419438384473e-05,3.6475623346632347e-05,-2.8455815481720492e-05,3.137101884931326e-05
-5.0554477638797835e-05,3.216677578166127e-05,-2.9014141546213068e-05,3.125773582723923e-05
-5.097631219541654e-05,2.9207572879386134e-05,-2.6003286620834842e-05,2.8684467906714417e-05
-4.625114888767712e-05,2.7213807697989978e-05,-2.5469260435784236e-05,2.4985985874081962e-05
-4.261028516339138e-05,3.092159022344276e-05,-2.7858419343829155e-05,2.329425115021877e-05
-4.081197766936384e-05,3.682179522002116e-05,-2.6103271011379547e-05,2.34151266340632e-05
-3.9495324017480016e-05,3.88320186175406e-05,-1.9593844626797363e-05,2.3812604922568426e-05
-3.971900514443405e-05,3.7166584661463276e-05,-1.656067070143763e-05,2.2604262994718738e-05
-3.956158980145119e-05,3.6719375202665105e-05,-1.6971851437119767e-05,2.3258360670297407e-05
-4.0427195926895365e-05,3.461640881141648e-05,-1.7461397874285467e-05,2.729640073084738e-05
-4.50503321189899e-05,3.0489534765365534e-05,-2.2015847207512707e-05,3.1374725949717686e-05
-4.737011477118358e-05,2.820336703734938e-05,-2.4430672056041658e-05,3.1014231353765354e-05
-4.6951707190601155e-05,2.798899367917329e-05,-2.2422334950533696e-05,2.785546166705899e-05
-4.4241118303034455e-05,3.024416400876362e-05,-2.007232433243189e-05,2.5483381250523962e-05
-4.355841156211682e-05,3.178762199240737e-05,-2.094911724270787e-05,2.3165965103544295e-05
-4.6111075789667666e-05,3.127479430986568e-05,-2.5023029593285173e-05,2.2650627215625718e-05
-4.8374608013546094e-05,2.6092982807313092e-05,-2.7184150894754566e-05,2.2687829186907038e-05
-4.8345184040954337e-05,1.7269609088543802e-05,-2.54205078817904e-05,2.012960430874955e-05
-4.71329185529612e-05,5.954990683676442e-06,-2.2081423594499938e-05,1.548789623484481e-05
-4.8360285290982574e-05,-5.459119165607262e-07,-2.2040403564460576e-05,1.0314449355064426e-05
-4.808412631973624e-05,-3.935098447982455e-06,-2.3482156393583864e-05,9.604338629287668e-06
-4.6994300646474585e-05,-1.0685160305001773e-05,-2.2053460270399228e-05,1.596063157194294e-05
-4.513248131843284e-05,-1.883627010101918e-05,-2.1068444766569883e-05,2.1056930563645437e-05
-4.2610892705852166e-05,-2.2373415049514733e-05,-2.531538120820187e-05,1.9699878976098262e-05
-4.071290823048912e-05,-1.874956433312036e-05,-3.036014641111251e-05,1.7385951650794595e-05
-4.1812319977907464e-05,-6.946519079065183e-06,-3.2869851565919816e-05,1.9443514247541316e-05
-4.408922541188076e-05,1.0988980648107827e-05,-3.40502338076476e-05,2.3533608327852562e-05
-4.5307697291718796e-05,3.0324168619699776e-05,-3.366454620845616e-05,2.3710059394943528e-05
-4.373987394501455e-05,5.227767178439535e-05,-3.1525349186267704e-05,1.932678605953697e-05
-4.0283066482516006e-05,7.44162462069653e-05,-2.7445237719803117e-05,1.9180683011654764e-05
-3.5434863093541935e-05,9.432470687897876e-05,-2.4310054868692532e-05,2.3643206077395007e-05
-3.488062066026032e-05,0.00011318399629089981,-2.6854924726649188e-05,2.5993029339588247e-05
-4.294899554224685e-05,0.00012645592505577952,-3.138440297334455e-05,2.700637560337782e-05
-4.827277734875679e-05,0.00012167642125859857,-3.2713614928070456e-05,2.6660172807169147e-05
-4.965574771631509e-05,0.00010268560436088592,-3.306305734440684e-05,2.5776678739930503e-05
-5.060553667135537e-05,8.873110346030444e-05,-3.3373598853359e-05,2.6483718102099374e-05
-4.711252768174745e-05,8.072423952398822e-05,-2.8698916139546782e-05,2.6552135750534944e-05
-4.826381700695492e-05,6.666374247288331e-05,-2.2559099306818098e-05,2.4365319404751062e-05
-5.126990799908526e-05,4.6501820179400966e-05,-1.9598965081968345e-05,2.3328066163230687e-05
-5.166494156583212e-05,2.4748549549258314e-05,-2.294679325132165e-05,2.3431961380993016e-05
-5.505749140866101e-05,8.620761036581825e-06,-2.737935574259609e-05,2.509657497284934e-05
-5.72879180253949e-05,2.2514427655551117e-06,-2.721395685512107e-05,3.100939284195192e-05
-5.499129110830836e-05,1.0641040404379964e-07,-2.837819920387119e-05,3.366938472026959e-05
-5.110755591886118e-05,-3.030854941243888e-06,-2.9468264983734116e-05,3.222125451429747e-05
-4.91239879920613e-05,-3.457590992184123e-06,-3.068672231165692e-05,3.19354330713395e-05
-4.6968256356194615e-05,3.3840658488770714e-06,-2.9427241315715946e-05,3.336289955768734e-05
-4.670254929806106e-05,2.1834417566424236e-05,-2.6063056793645956e-05,3.4053904528263956e-05
-4.940216604154557e-05,5.027435690863058e-05,-2.343052256037481e-05,3.265790655859746e-05
-5.365121251088567e-05,7.377861038548872e-05,-2.0171717551420443e-05,2.893753298849333e-05
-5.851362584508024e-05,7.696523243794218e-05,-1.855468326539267e-05,2.709610816964414e-05
-6.586361996596679e-05,6.078105798223987e-05,-2.1419464246719144e-05,2.9618882763315924e-05
-7.268122863024473e-05,4.196091686026193e-05,-2.4318715077242814e-05,3.374436346348375e-05
-7.130453741410747e-05,3.2903000828810036e-05,-2.3592017896589823e-05,3.675558400573209e-05
-6.169897824293002e-05,3.091656253673136e-05,-2.361275619477965e-05,3.76841016986873e-05
-5.094091102364473e-05,2.745778692769818e-05,-2.428169136692304e-05,3.6847806768491864e-05
-4.433169306139462e-05,2.395845513092354e-05,-2.46134204644477e-05,3.5365537769393995e-05
-4.450878259376623e-05,2.4407672754023224e-05,-2.477620728313923e-05,3.5656186810228974e-05
-4.9766458687372506e-05,2.4075829060166143e-05,-2.3141037672758102e-05,3.576073140720837e-05
-4.887823888566345e-05,2.3493315893574618e-05,-2.203880467277486e-05,3.315855792607181e-05
-4.018135223304853e-05,2.518384462746326e-05,-2.3846687327022664e-05,3.029624349437654e-05
-3.840298086288385e-05,2.5388926587766036e-05,-2.572612174844835e-05,3.0425975637626834e-05
-4.2522344301687554e-05,2.8111704523325898e-05,-2.5331066353828646e-05,3.0026674721739255e-05
-4.5886801672168076e-05,3.0045404855627567e-05,-2.274902908538934e-05,2.6881525627686642e-05
-4.7804845962673426e-05,2.5586226911400445e-05,-1.9508735931594856e-05,2.316970312676858e-05
-4.5381901145447046e-05,1.9610375602496788e-05,-2.1332620235625654e-05,2.1875262973480858e-05
-4.0754330257186666e-05,1.5233353224175517e-05,-2.773518644971773e-05,2.0570785636664368e-05
-3.826299143838696e-05,1.2284607691981364e-05,-3.3011117920977995e-05,1.7763146388460882e-05
-3.963317067245953e-05,1.4494095921691041e-05,-3.332103369757533e-05,1.5614023141097277e-05
-3.880088479490951e-05,2.081789352814667e-05,-2.6876085030380636e-05,1.5046988664835226e-05
-4.051854193676263e-05,2.4041126380325295e-05,-2.1711088265874423e-05,1.5155310393311083e-05
-4.386108776088804e-05,2.1641477360390127e-05,-1.9059889382333495e-05,1.4460556485573761e-05
-4.39463765360415e-05,1.5802632333361544e-05,-1.8595812434796244e-05,1.5618936231476255e-05
-4.37192247773055e-05,1.2652456462092232e-05,-2.0348026737337932e-05,1.8512642782297917e-05
-4.357050420367159e-05,1.5361780242528766e-05,-2.193539148720447e-05,1.9453516870271415e-05
-4.242714567226358e-05,1.7050044334609993e-05,-2.2110569261712953e-05,1.7540560293127783e-05
-3.8656835386063904e-05,1.2760266145050991e-05,-1.9286560927866958e-05,1.5764739146106876e-05
-3.6005425499752164e-05,9.411610335519072e-06,-1.8038381313090213e-05,1.620081820874475e-05
-3.6610734241548926e-05,1.0940041647700127e-05,-2.0047553334734403e-05,1.7402957382728346e-05
-3.8414007576648146e-05,1.5873152733547613e-05,-2.0907842554152012e-05,2.0188917915220372e-05
-3.858101990772411e-05,2.428840525681153e-05,-1.899993912957143e-05,2.4197752281907015e-05
-3.6158795410301536e-05,3.1433693948201835e-05,-1.9669530956889503e-05,2.4083534299279563e-05
-3.353285865159705e-05,2.8765754905180074e-05,-2.398030301264953e-05,1.7763379219104536e-05
-3.534237475832924e-05,1.9164381228620186e-05,-2.8097658287151717e-05,1.3260651940072421e-05
-3.746584116015583e-05,1.249700926564401e-05,-2.866150316549465e-05,1.459073700971203e-05
-3.660027505247854e-05,1.2268521459191106e-05,-2.863720328605268e-05,1.8755772543954663e-05
-4.089061258127913e-05,1.587961924087722e-05,-2.992852751049213e-05,2.2701389752910472e-05
-4.81417118862737e-05,1.8879341951105744e-05,-2.9964307032059878e-05,2.454320747347083e-05
-5.1632454415084794e-05,2.031192707363516e-05,-2.5405988708371297e-05,2.362743907724507e-05
-5.424124901765026e-05,1.999251253437251e-05,-2.2492804419016466e-05,2.089762347168289e-05
-5.1639843150042e-05,2.1374171410570852e-05,-2.6837693440029398e-05,1.844006692408584e-05
-5.07768418174237e-05,2.2746538888895884e-05,-3.3029929909389466e-05,1.8143980923923664e-05
-5.4769938287790865e-05,2.252596641483251e-05,-3.705327253555879e-05,2.1639019905705936e-05
-5.834698094986379e-05,2.508895704522729e-05,-3.388629193068482e-05,2.3608496121596545e-05
-5.935121953370981e-05,3.170461059198715e-05,-2.9841152354492806e-05,2.18769255297957e-05
-5.623904144158587e-05,4.154301495873369e-05,-3.108832606812939e-05,1.999909000005573e-05
-5.382154995459132e-05,4.51014784630388e-05,-3.207103509339504e-05,1.8092150639859028e-05
-5.3290572395781055e-05,4.179004463367164e-05,-2.9621971407323144e-05,1.5837327737244777e-05
-5.775910540251061e-05,3.857054252875969e-05,-2.765722274489235e-05,1.7343305444228463e-05
-6.036384729668498e-05,4.19892676291056e-05,-2.796610897348728e-05,2.0835554096265696e-05
-5.7853369071381167e-05,5.1352202717680484e-05,-2.946677886939142e-05,2.4720500732655637e-05
-5.444567068479955e-05,6.089211456128396e-05,-3.0237841201596893e-05,2.674912684597075e-05
-5.549985507968813e-05,6.711536116199568e-05,-2.938604484370444e-05,2.648066947585903e-05
-5.890087049920112e-05,6.760615360690281e-05,-2.766696343314834e-05,2.5644203560659662e-05
-6.071527241147123e-05,6.186959217302501e-05,-2.705576116568409e-05,2.271970697620418e-05
-5.9544800024013966e-05,5.077626701677218e-05,-2.773438609438017e-05,1.9935723685193807e-05
-5.695402069250122e-05,3.969652971136384e-05,-2.753241642494686e-05,2.1324336557881907e-05
-5.7706078223418444e-05,3.573793583200313e-05,-2.9121925763320178e-05,2.5723173166625202e-05
-6.234065222088248e-05,3.859233038383536e-05,-3.194662349415012e-05,2.897018930525519e-05
-6.68554421281442e-05,3.853726593661122e-05,-3.0136248824419454e-05,2.9708955480600707e-05
-6.671817391179502e-05,3.466416819719598e-05,-2.551579018472694e-05,2.6952053303830326e-05
-6.149744876893237e-05,3.5143639252055436e-05,-2.3888685973361135e-05,2.5793568056542426e-05
-5.600097210844979e-05,3.963342169299722e-05,-2.3363685613730922e-05,2.8156606276752427e-05
-5.550425703404471e-05,4.1647876059869304e-05,-2.1356998331611976e-05,2.748017868725583e-05
-5.6058965128613636e-05,3.889131767209619e-05,-2.026947731792461e-05,2.2675183572573587e-05
-5.688968667527661e-05,3.5645440220832825e-05,-2.051671799563337e-05,2.10374691960169e-05
-5.5037282436387613e-05,3.427283081691712e-05,-2.2636924768448807e-05,2.124346610798966e-05
-5.387498822528869e-05,3.0733241146663204e-05,-2.73335517704254e-05,2.0495375792961568e-05
-5.419128865469247e-05,2.9272769097588025e-05,-2.8256908990442753e-05,2.1844005459570326e-05
-5.525813685380854e-05,3.532537812134251e-05,-2.5720974008436315e-05,2.5549619749654084e-05
-6.186528480611742e-05,3.693714097607881e-05,-2.5204602934536524e-05,2.566227522038389e-05
-6.981202750466764e-05,2.6386043828097172e-05,-2.645786662469618e-05,2.120984936482273e-05
-7.643295975867659e-05,1.944211544468999e-05,-2.8780179491150193e-05,1.646386408538092e-05
-8.162568701663986e-05,1.7415439288015477e-05,-3.017338167410344e-05,1.3542642591346521e-05
-8.212750981329009e-05,1.4941169865778647e-05,-2.7945085093961097e-05,1.3788152500637807e-05
-7.458119944203645e-05,1.3047049833403435e-05,-2.5402858227607794e-05,1.552266076032538e-05
-6.517657311633229e-05,1.2206233805045485e-05,-2.135576323780697e-05,1.8454047676641494e-05
-6.10715287621133e-05,1.2986331967113074e-05,-1.8138041923521087e-05,2.1112649847054854e-05
-6.136581941973418e-05,1.7726526493788697e-05,-1.6461714039905928e-05,2.0301864424254745e-05
-6.25570974079892e-05,2.6171306672040373e-05,-1.651793354540132e-05,1.680766581557691e-05
-5.8603625802788883e-05,3.7910333048785105e-05,-1.8572189219412394e-05,1.6626778233330697e-05
-5.2132239943603054e-05,5.2880950534017757e-05,-1.929845893755555e-05,2.132444024027791e-05
-4.9968315579462796e-05,6.582758942386135e-05,-1.903778684209101e-05,2.6836492907023057e-05
-5.203692489885725e-05,7.269714114954695e-05,-1.8432190699968487e-05,3.058920265175402e-05
-5.182914901524782e-05,7.42789197829552e-05,-1.8267426639795303e-05,3.374072548467666e-05
-5.0446513341739774e-05,6.93254842190072e-05,-2.0081319235032424e-05,3.4125307138310745e-05
-5.119639536133036e-05,5.312733992468566e-05,-2.3141783458413556e-05,3.065288547077216e-05
-5.286403757054359e-05,3.450420990702696e-05,-2.5305791496066377e-05,2.7709076675819233e-05
-5.3818766900803894e-05,2.571624099800829e-05,-2.8452745027607307e-05,2.6058782168547623e-05
-5.268184395390563e-05,2.6535806682659313e-05,-3.129202741547488e-05,2.6088331651408225e-05
-5.228922236710787e-05,2.68603180302307e-05,-3.321090116514824e-05,2.627024514367804e-05
-5.360388968256302e-05,2.4720438887015916e-05,-3.263178950874135e-05,2.3917931684991345e-05
-5.171527300262824e-05,2.3843260350986384e-05,-3.0034552764846012e-05,2.265284456370864e-05
-4.512963641900569e-05,2.6321054974687286e-05,-2.7252348445472308e-05,2.5165374609059654e-05
-4.309191717766225e-05,3.0711711588082835e-05,-2.3975140720722266e-05,2.609141120046843e-05
-4.458732655621134e-05,3.4136428439524025e-05,-2.476145346008707e-05,2.3990423869690858e-05
-4.518728019320406e-05,3.6087727494305e-05,-2.6063749828608707e-05,2.1641777493641712e-05
-4.843947681365535e-05,3.581535565899685e-05,-2.3023292669677176e-05,2.1956970158498734e-05
-5.408079596236348e-05,3.1503921491093934e-05,-2.3423368475050665e-05,2.3765624064253643e-05
-5.56106460862793e-05,2.760624556685798e-05,-2.6530124159762636e-05,2.4644214136060327e-05
-5.0741149607347324e-05,2.5907840608851984e-05,-3.1962175853550434e-05,2.6262152459821664e-05
-4.372249895823188e-05,2.8481495974119753e-05,-3.306462167529389e-05,2.624565786391031e-05
-3.7291225453373045e-05,3.1860250601312146e-05,-2.833001417457126e-05,2.4789136659819633e-05
-3.3428332244511694e-05,3.2300555176334456e-05,-2.2297514078672975e-05,2.3731869077892043e-05
-3.350964834680781e-05,2.9001370421610773e-05,-1.7859149011201225e-05,2.300063533766661e-05
-3.6116416595177725e-05,2.6715330022852868e-05,-1.736059675749857e-05,2.275532460771501e-05
-3.989579272456467e-05,3.0206827432266437e-05,-1.9831566532957368e-05,2.2450729375123046e-05
-4.2684296204242855e-05,3.565623774193227e-05,-2.130393113475293e-05,2.0953193597961217e-05
-4.37870439782273e-05,3.997812746092677e-05,-2.12303530133795e-05,2.0419001884874888e-05
-4.422183701535687e-05,3.7614168832078576e-05,-2.4326544007635675e-05,1.9315295503474772e-05
-4.627427915693261e-05,2.6966114091919735e-05,-2.7484269594424404e-05,1.799320125428494e-05
-5.089336264063604e-05,1.3625139217765536e-05,-2.8222922992426902e-05,1.7402080629835837e-05
-5.383881216403097e-05,4.891990556643577e-06,-2.743332152022049e-05,1.8258999261888675e-05
-4.990196248400025e-05,6.990612746449187e-07,-2.912457421189174e-05,1.9461700503597967e-05
-4.2287960241083056e-05,-9.437929975320003e-07,-3.120537076028995e-05,1.839190736063756e-05
-4.0148694097297266e-05,-4.905887635686668e-06,-2.9855038519599475e-05,1.842791971284896e-05
-4.448252002475783e-05,-1.1050919056287967e-05,-2.7938456696574576e-05,2.1596355509245768e-05
-4.778921356773935e-05,-6.233636213437421e-06,-2.876760481740348e-05,2.549511737015564e-05
-4.879820698988624e-05,1.263617286895169e-05,-2.5450137400184758e-05,2.4794753699097782e-05
-5.0929094868479297e-05,3.359574111527763e-05,-1.8403012290946208e-05,2.4567521904828027e-05
-5.235450225882232e-05,5.162617890164256e-05,-1.727599919831846e-05,2.880900865420699e-05
-4.979960431228392e-05,6.971402035560459e-05,-2.252846024930477e-05,3.185004970873706e-05
-4.453877409105189e-05,8.738909673411399e-05,-2.4752114768489264e-05,3.3855001674965024e-05
-4.2366704292362556e-05,0.0001013710061670281,-2.5896802981151268e-05,3.342462150612846e-05
-4.567964424495585e-05,0.00010922231012955308,-2.9147671739337966e-05,2.97415772365639e-05
-5.435285856947303e-05,9.981745097320527e-05,-3.301381730125286e-05,2.622158353915438e-05
-5.9377154684625566e-05,7.476191240129992e-05,-3.361324343131855e-05,2.348309317312669e-05
-5.684457210008986e-05,4.652150528272614e-05,-3.079349335166626e-05,2.3478874936699867e-05
-5.161818626220338e-05,2.668618799361866e-05,-2.8784947062376887e-05,2.281142951687798e-05
-4.684703526436351e-05,2.0475574274314567e-05,-2.9337108571780846e-05,2.1259082132019103e-05
-4.514581087278202e-05,2.2180229279911146e-05,-3.171008938807063e-05,2.0798992409254424e-05
-4.366444773040712e-05,2.1328716684365645e-05,-3.3226460800506175e-05,2.1212923456914723e-05
-4.213600914226845e-05,1.717052873573266e-05,-3.31419323629234e-05,2.1787447622045875e-05
-4.1900955693563446e-05,1.4955718143028207e-05,-2.973418122564908e-05,2.317120561201591e-05
-4.3247302528470755e-05,1.7442744137952104e-05,-2.5472054403508082e-05,2.2478743630927056e-05
-4.258194530848414e-05,2.382573984505143e-05,-2.368059358559549e-05,1.986419374588877e-05
-3.658951027318835e-05,2.7339303414919414e-05,-2.5152714442810975e-05,1.824156061047688e-05
-2.695999683055561e-05,2.0941433831467293e-05,-2.6134905056096613e-05,1.7651345842750743e-05
-2.2302278011920862e-05,9.468906682741363e-06,-2.611947820696514e-05,1.6968571799225174e-05
-2.7478607080411166e-05,8.509422514180187e-06,-2.487328674760647e-05,1.542298741696868e-05
-3.567298699636012e-05,2.3130985937314108e-05,-2.15010077226907e-05,1.424074980604928e-05
-4.142474790569395e-05,4.765943594975397e-05,-1.822914055082947e-05,1.358086501568323e-05
-4.4040360080543905e-05,6.632199801970273e-05,-1.9421382603468373e-05,1.4628531062044203e-05
-4.560960951494053e-05,6.664142711088061e-05,-2.146571750927251e-05,1.6999090803437866e-05
-5.095556116430089e-05,5.263769344310276e-05,-1.9473833162919618e-05,1.797253207769245e-05
-5.764858360635117e-05,3.977663072873838e-05,-1.5396228263853118e-05,1.8033248124993406e-05
-6.139466859167442e-05,3.192353688064031e-05,-1.234217870660359e-05,1.8924152755062096e-05
-5.77184182475321e-05,2.625295201141853e-05,-1.3427791600406636e-05,1.962624810403213e-05
-4.728621570393443e-05,2.1482605006895028e-05,-1.835237162595149e-05,2.2831296519143507e-05
-4.1146315197693184e-05,2.3078391677699983e-05,-2.167129423469305e-05,2.980437784572132e-05
-4.4122894905740395e-05,2.8096195819671266e-05,-2.1834182916791178e-05,4.0290196920977905e-05
-5.4145904869074e-05,2.9077780709485523e-05,-2.4873437723726965e-05,4.716423791251145e-05
-5.945151860942133e-05,2.7277854314888828e-05,-3.0142178729875013e-05,4.340509985922836e-05
-5.8625464589567855e-05,2.534267150622327e-05,-3.018049756065011e-05,3.591121276258491e-05
-5.6427204981446266e-05,2.4382725314353593e-05,-2.5284638468292542e-05,3.2164822187041864e-05
-5.393661558628082e-05,2.409977969364263e-05,-2.119242344633676e-05,2.9602797440020368e-05
-5.54066791664809e-05,2.668828710739035e-05,-2.112061520165298e-05,2.8642918550758623e-05
-5.938633330515586e-05,2.7116713681607507e-05,-2.3071574105415493e-05,3.008023850270547e-05
-5.8190227719023824e-05,2.464233330101706e-05,-2.2728974727215245e-05,2.9481479941750877e-05
-5.409918230725452e-05,2.263968053739518e-05,-2.0941972252330743e-05,2.4332530301762745e-05
-5.272496127872728e-05,2.326193316548597e-05,-2.0617671907530166e-05,1.923744275700301e-05
-5.4339478083420545e-05,2.4977372959256172e-05,-1.9668383174575865e-05,1.6517367839696817e-05
-5.6365850468864664e-05,2.4375502107432112e-05,-1.697505831543822e-05,1.6471531125716865e-05
-5.630708983517252e-05,2.07321882044198e-05,-1.7329697584500536e-05,1.807668559195008e-05
-5.52122037333902e-05,1.5329105735872872e-05,-2.062016756099183e-05,1.9447157683316618e-05
-5.4251879191724584e-05,1.2512877219705842e-05,-2.3138811229728162e-05,2.089378540404141e-05
-5.690269244951196e-05,1.518877070338931e-05,-2.450265128572937e-05,2.2846930733066984e-05
-6.270062294788659e-05,2.0433093595784158e-05,-2.567268347775098e-05,2.4276774638565257e-05
-6.471752567449585e-05,2.337387741135899e-05,-2.8876320357085206e-05,2.505338125047274e-05
-6.228957499843091e-05,2.247670454380568e-05,-3.367134922882542e-05,2.761161704256665e-05
-6.148354441393167e-05,2.1007594114053063e-05,-3.486873538349755e-05,2.9654496756847948e-05
-6.087967267376371e-05,2.1129282686160877e-05,-3.277723226347007e-05,2.7435109586804174e-05
-5.72884309804067e-05,2.2359970898833126e-05,-3.26379195030313e-05,2.3866274204920046e-05
-5.15424799232278e-05,2.4149781893356703e-05,-3.508849113131873e-05,2.3443004465661943e-05
-4.933167656417936e-05,2.7317164494888857e-05,-3.538906094036065e-05,2.2920587070984766e-05
-4.879091648035683e-05,3.0039418561500497e-05,-2.995678187289741e-05,2.1027544789831154e-05
-4.8022164264693856e-05,2.9476661438820884e-05,-2.6637468181434087e-05,2.0906472855131142e-05
-4.642297062673606e-05,3.065737837459892e-05,-2.6851461370824836e-05,2.479788236087188e-05
-4.168555824435316e-05,2.9716771678067744e-05,-2.5766334147192538e-05,2.4524568289052695e-05
-3.933142943424173e-05,2.6009116481873207e-05,-2.6711320970207453e-05,1.976706516870763e-05
-4.22296034230385e-05,2.390568442933727e-05,-2.848426447599195e-05,1.8480455764802173e-05
-4.437624738784507e-05,2.3003578462521546e-05,-3.1602550734533e-05,2.007632065215148e-05
-4.585435090120882e-05,2.4964456315501593e-05,-3.137799649266526e-05,2.1555910279857926e-05
-4.764009281643666e-05,2.8768212359864265e-05,-3.0348515792866237e-05,2.3001233785180375e-05
-4.849256947636604e-05,3.0074947062530555e-05,-2.9007240300416015e-05,2.394538387306966e-05
-4.94811829412356e-05,2.7459487682790495e-05,-2.5997460397775285e-05,2.2299444026430137e-05
-4.5184959162725136e-05,2.3945765860844404e-05,-2.6031357265310362e-05,2.2176385755301453e-05
-3.3879081456689164e-05,2.518095243431162e-05,-2.5430703317397274e-05,2.4784232664387673e-05
-2.1260048015392385e-05,3.1077248422661796e-05,-2.25289368245285e-05,2.665760439413134e-05
-1.3243170542409644e-05,3.393811493879184e-05,-2.0156594473519363e-05,2.728228719206527e-05
-1.0419182217447087e-05,3.231506343581714e-05,-2.1742755052400753e-05,2.885446883738041e-05
-1.203195824928116e-05,3.099294917774387e-05,-2.284148104081396e-05,3.237913188058883e-05
-1.7715270587359555e-05,3.2930558518273756e-05,-2.1948850189801306e-05,3.565409133443609e-05
-2.5291195925092325e-05,3.683575050672516e-05,-1.9918963516829535e-05,3.5547320294426754e-05
-3.0111452360870317e-05,4.234920197632164e-05,-1.9151622836943716e-05,3.405040843063034e-05
-3.2115258363774046e-05,4.6404889872064814e-05,-2.1107438442413695e-05,3.090644895564765e-05
-3.666698103188537e-05,4.7191366320475936e-05,-2.3300071916310117e-05,2.5993535018642433e-05
-4.4700409489450976e-05,4.658275793190114e-05,-2.3778125978424214e-05,2.4388702513533644e-05
-5.042804332333617e-05,4.7205940063577145e-05,-2.378865610808134e-05,2.5679735699668527e-05
-5.361509101931006e-05,4.542013630270958e-05,-2.308222246938385e-05,2.769364436971955e-05
-5.339935523807071e-05,4.229551268508658e-05,-2.2031983462511562e-05,2.7664109438774176e-05
-5.211515599512495e-05,4.19850111939013e-05,-2.320926978427451e-05,2.709762156882789e-05
-5.602352030109614e-05,4.1945866541936994e-05,-2.4595647118985653e-05,2.870746720873285e-05
-5.9210335166426376e-05,4.0314553189091384e-05,-2.3612841687281616e-05,2.873122866731137e-05
-6.080875391489826e-05,3.811923670582473e-05,-2.369248613831587e-05,2.7849882826558314e-05
-6.556235166499391e-05,3.3070609788410366e-05,-2.5983896193793043e-05,2.740960189839825e-05
-6.7711720475927e-05,2.682203739823308e-05,-3.009230385941919e-05,2.757407673925627e-05
-6.671828305115923e-05,2.9127106245141476e-05,-3.360214759595692e-05,3.0811283068032935e-05
-6.698745710309595e-05,3.893872781191021e-05,-3.131655103061348e-05,3.45296211889945e-05
-6.602463690796867e-05,4.6498018491547555e-05,-2.473622589604929e-05,3.50213740603067e-05
-6.362486601574346e-05,4.629707837011665e-05,-1.9317518308525905e-05,3.1636514904676005e-05
-5.598268035100773e-05,4.143992191529833e-05,-1.7597098121768795e-05,2.688948188733775e-05
-4.841647751163691e-05,3.825328531092964e-05,-1.9971392248407938e-05,2.260630571981892e-05
-4.6383411245187744e-05,3.975300569436513e-05,-2.4839349862304516e-05,2.0256940842955373e-05
-4.709230415755883e-05,4.042550426675007e-05,-2.7146932552568614e-05,1.9835388229694217e-05
-4.772645843331702e-05,3.952686893171631e-05,-2.812731145240832e-05,2.0372872313600965e-05
-4.8854151827981696e-05,3.769475006265566e-05,-3.0950996006140485e-05,2.2551372239831835e-05
-5.21055881108623e-05,3.2510706660104915e-05,-3.520699101500213e-05,2.3922473701532e-05
-5.567487460211851e-05,2.3561797206639312e-05,-3.80726414732635e-05,2.1977080905344337e-05
-5.847635111422278e-05,1.599052302481141e-05,-3.8664638850605115e-05,1.9407472791499458e-05
-5.8954203268513083e-05,1.4537841707351618e-05,-3.778832615353167e-05,1.968851574929431e-05
-5.9712649090215564e-05,1.670770325290505e-05,-3.509174712235108e-05,2.0542829588521272e-05
-6.041135566192679e-05,1.8244132661493495e-05,-3.1842715543461964e-05,1.8903012460214086e-05
-5.982325819786638e-05,1.7820475477492437e-05,-3.1118692277232185e-05,1.6961539586191066e-05
-6.062352258595638e-05,1.5126746802707203e-05,-3.02557473332854e-05,1.631909435673151e-05
-6.132211274234578e-05,1.1730446203728206e-05,-2.692262569325976e-05,1.4910785466781817e-05
-5.944535951130092e-05,1.3531584954762366e-05,-2.670857065822929e-05,1.3442031558952294e-05
-5.8787041780306026e-05,2.0656993001466617e-05,-2.881417458411306e-05,1.4785484381718561e-05
-5.933989450568333e-05,3.2178129913518205e-05,-2.73666391876759e-05,1.5998131857486442e-05
-5.546222018892877e-05,4.561608511721715e-05,-2.3876023988123052e-05,1.0716973520175088e-05
-4.994645860278979e-05,5.944324948359281e-05,-2.456967740727123e-05,9.238894563168287e-06
-4.511446968535893e-05,7.579580415040255e-05,-2.7214333385927603e-05,1.2829206752940081e-05
-4.089091453352012e-05,8.57373233884573e-05,-3.010319051099941e-05,1.715396501822397e-05
-4.269876080797985e-05,8.182231249520555e-05,-3.170407944708131e-05,1.9956807591370307e-05
-4.7185800212901086e-05,7.279511191882193e-05,-2.896188925660681e-05,1.574648376845289e-05
-4.8488876927876845e-05,6.397612014552578e-05,-2.8638009098358452e-05,1.1619511496974155e-05
-4.73385771329049e-05,5.757666804129258e-05,-2.7623398636933416e-05,1.1977306712651625e-05
-4.889251067652367e-05,5.401410089689307e-05,-2.6537110898061655e-05,1.7375825336785056e-05
-5.275022340356372e-05,5.012522524339147e-05,-2.4868091713869944e-05,2.5074999939533882e-05
-5.5026321206241846e-05,4.498780253925361e-05,-2.4614186258986592e-05,3.1427502108272165e-05
-5.2227107516955584e-05,4.328273644205183e-05,-2.8402984753483906e-05,3.3178774174302816e-05
-5.081714334664866e-05,4.418829485075548e-05,-3.22321466228459e-05,3.230860602343455e-05
-5.3365914936875924e-05,4.3370066123316064e-05,-3.2820818887557834e-05,2.9116705263732e-05
-5.545719250221737e-05,3.973042839788832e-05,-2.9609051125589758e-05,2.5857254513539374e-05
-5.56771265110001e-05,3.2903102692216635e-05,-2.6909998268820345e-05,2.7027263058698736e-05
-5.4725482186768204e-05,2.5928808099706657e-05,-2.472465166647453e-05,3.201068102498539e-05
-5.268950917525217e-05,2.13537787203677e-05,-2.4185656002373435e-05,3.65211017196998e-05
-4.9087157094618306e-05,2.0069199308636598e-05,-2.4864926672307774e-05,3.8605096051469445e-05
-4.7012137656565756e-05,1.9973052985733375e-05,-2.4710554498597048e-05,3.642163937911391e-05
-4.7792298573767766e-05,1.991724275285378e-05,-2.370345282542985e-05,3.1876927096163854e-05
-5.057319503976032e-05,1.8081513189827092e-05,-2.5011477191583253e-05,3.1609310099156573e-05
-5.155281178303994e-05,1.8265407561557367e-05,-2.5676306904642843e-05,3.3358079235767946e-05
-5.1053673814749345e-05,2.691883491934277e-05,-2.495510307198856e-05,3.285444836365059e-05
-4.7805973736103624e-05,3.6185090721119195e-05,-2.239008063043002e-05,2.8889802706544288e-05
-4.3851588998222724e-05,3.545673462213017e-05,-1.9570536096580327e-05,2.5938523322110996e-05
-4.5955515815876424e-05,2.8206841307110153e-05,-1.8142642147722654e-05,2.5768189516384155e-05
-4.8409670853288844e-05,2.149477404600475e-05,-2.1554507839027792e-05,2.8217327781021595e-05
-4.6009641664568335e-05,1.2280157534405589e-05,-2.5160230507026426e-05,3.377780376467854e-05
-4.204967262921855e-05,-2.783884553991811e-07,-2.6408972189528868e-05,3.663085226435214e-05
-4.01555844291579e-05,-4.090424681635341e-06,-2.8643140467465855e-05,3.5390366974752396e-05
-4.274187085684389e-05,4.091225775937346e-07,-2.9086686481605284e-05,3.38045610988047e-05
-4.1671555663924664e-05,5.655852419295115e-06,-3.0425688237301074e-05,3.141371416859329e-05
-4.080443250131793e-05,7.919894414953887e-06,-2.8509388357633725e-05,3.086024662479758e-05
-4.148681546212174e-05,6.884689355501905e-06,-2.2422869733418338e-05,3.325084617245011e-05
-4.280254870536737e-05,8.403392712352797e-06,-1.9209819583920762e-05,3.838093834929168e-05
-4.0682516555534676e-05,1.3128465070622042e-05,-2.076075725199189e-05,4.017564788227901e-05
-3.620539064286277e-05,1.7870845113066025e-05,-2.5300567358499393e-05,3.7112044083187357e-05
-3.5207613109378144e-05,2.3243861505761743e-05,-2.8110678613302298e-05,3.32350391545333e-05
-4.058021659147926e-05,3.105336145381443e-05,-2.7180964025319554e-05,3.0496528779622167e-05
-5.0795286369975656e-05,4.468324186746031e-05,-2.7865189622389153e-05,3.247841232223436e-05
-5.683144991053268e-05,6.751641194568947e-05,-3.216813274775632e-05,3.673054015962407e-05
-5.868333755643107e-05,8.894612255971879e-05,-3.5289584047859535e-05,3.634869062807411e-05
-5.88401744607836e-05,9.22235703910701e-05,-3.426324110478163e-05,2.9523487683036365e-05
-6.122382910689339e-05,7.927756814751774e-05,-3.2818017643876374e-05,2.1276264305924997e-05
-6.521621980937198e-05,6.746161670889705e-05,-3.121648114756681e-05,1.4596844266634434e-05
-6.736459909006953e-05,6.168592517497018e-05,-2.6937985239783302e-05,1.1034023373213131e-05
-6.722933903802186e-05,5.898291783523746e-05,-2.294689511472825e-05,1.0117994861502666e-05
-7.082389493007213e-05,5.782519292552024e-05,-2.2104968593339436e-05,8.957511454354972e-06
-7.380737224593759e-05,4.9911413952941075e-05,-2.3716871510259807e-05,6.895755632285727e-06
-6.974642019486055e-05,3.6212422855896875e-05,-2.7566899007069878e-05,9.103047887037974e-06
-6.664368265774101e-05,3.410960198380053e-05,-3.006141741934698e-05,1.438625440641772e-05
-7.34003187972121e-05,4.377128425403498e-05,-2.906524605350569e-05,1.694462298473809e-05
-7.79914844315499e-05,4.0715265640756115e-05,-2.901737389038317e-05,1.539905679237563e-05
-7.175315113272518e-05,1.9683879145304672e-05,-2.8501508495537564e-05,1.4858793292660266e-05
-6.646447582170367e-05,1.3135259905538987e-05,-2.573436540842522e-05,2.0290532120270655e-05
-6.87441133777611e-05,3.0202101697796024e-05,-2.5151830413960852e-05,2.298760591656901e-05
-7.212729542516172e-05,4.155501665081829e-05,-2.4973896870505996e-05,2.027313894359395e-05
-7.645873120054603e-05,3.566469604265876e-05,-2.3049653464113362e-05,1.60705440066522e-05
-7.966561679495499e-05,2.694059003260918e-05,-1.956104824785143e-05,1.0669683433661703e-05
-7.216502126539126e-05,2.5825716875260696e-05,-1.5588100723107345e-05,7.2921166065498255e-06
-5.168208372197114e-05,2.64843984041363e-05,-1.5624871593900025e-05,6.914097866683733e-06
-2.984242746606469e-05,2.4035436581471004e-05,-1.8241233192384243e-05,1.1356602954037953e-05
-1.8040207578451373e-05,2.1223198928055353e-05,-2.0832574591622688e-05,1.5851983334869146e-05
-1.453686309105251e-05,2.1590114556602202e-05,-2.3356767997029237e-05,1.6357220374629833e-05
-1.1699951755872462e-05,2.42229325522203e-05,-2.3788046746631153e-05,1.7147865946753882e-05
-6.81020037518465e-06,2.6184306989307515e-05,-2.240061803604476e-05,2.0878438590443693e-05
-2.5383174033777323e-06,2.8599508368643e-05,-2.0238978322595358e-05,2.484751348674763e-05
-3.6024082419316983e-06,3.2848412956809625e-05,-1.8184466171078384e-05,2.7456942916614935e-05
-1.0769224900286645e-05,3.304882920929231e-05,-1.656033236940857e-05,2.950341695395764e-05
-1.9298810002510436e-05,2.8773443773388863e-05,-1.644705298531335e-05,3.0036297175684012e-05
-2.8337752155493945e-05,2.670618960110005e-05,-1.8702354282140732e-05,2.7808091545011848e-05
-3.904515688191168e-05,2.618421240185853e-05,-2.27917935262667e-05,2.119255623256322e-05
-5.139573841006495e-05,2.3005481125437655e-05,-2.6145135052502155e-05,8.559377420169767e-06
-6.106049113441259e-05,1.4003590877109673e-05,-3.075486165471375e-05,-5.5671703194093425e-06
-6.516974826809019e-05,1.607446392881684e-06,-3.8746973586967215e-05,-7.883477337600198e-06
-6.0495422076201066e-05,-6.82649806549307e-06,-4.103291212231852e-05,6.021971330483211e-06
-5.065959339844994e-05,-4.937895027978811e-06,-3.518328594509512e-05,2.575130019977223e-05
-4.583534609992057e-05,8.539645023120102e-06,-3.0522525776177645e-05,3.828239277936518e-05
-5.0494898459874094e-05,2.223230512754526e-05,-2.9944692869321443e-05,4.001114939455874e-05
-5.7091536291409284e-05,2.770117498585023e-05,-3.0130708182696253e-05,3.7398865970317274e-05
-5.8249166613677517e-05,2.8004231353406794e-05,-2.855986895156093e-05,3.2551961339777336e-05
-5.129086275701411e-05,2.66349088633433e-05,-2.5405284759472124e-05,2.912036143243313e-05
-4.551652818918228e-05,2.8600259611266665e-05,-2.4559283701819368e-05,2.750915336946491e-05
-4.8551635700277984e-05,3.003022720804438e-05,-2.4513745302101597e-05,2.4697163098608144e-05
-5.301149940351024e-05,2.331882933503948e-05,-2.498480534995906e-05,2.3367165340459906e-05
-5.1888913731090724e-05,1.473859629186336e-05,-2.8521242711576633e-05,2.286464223288931e-05
-4.784393968293443e-05,1.3957375813333783e-05,-3.14988756144885e-05,2.3114800569601357e-05
-4.920884748571552e-05,2.0118393877055496e-05,-2.9873552193748765e-05,2.140026663255412e-05
-5.4313382861437276e-05,2.8510741685749963e-05,-2.717218558245804e-05,1.9399756638449617e-05
-5.919603063375689e-05,3.515488060656935e-05,-2.6334950234740973e-05,1.5125680874916725e-05
-6.293837213888764e-05,3.329961691633798e-05,-2.7281093935016543e-05,1.116964722314151e-05
-7.03124824212864e-05,2.645662425493356e-05,-2.7701114959199913e-05,1.2014467756671365e-05
-7.817818550392985e-05,2.2928046746528707e-05,-2.798647437884938e-05,1.5012921721790917e-05
-7.964797259774059e-05,2.1649171685567126e-05,-2.915731238317676e-05,1.828659515012987e-05
-7.608412124682218e-05,2.0235063857398927e-05,-2.7903986847377382e-05,2.1638936232193373e-05
-7.030613051028922e-05,1.4583332813344896e-05,-2.4780940293567255e-05,2.2643895135843195e-05
-6.396049866452813e-05,4.380493010103237e-06,-2.5518696929793805e-05,2.081340062431991e-05
-5.674571730196476e-05,-1.4918280157871777e-06,-2.8649808882619254e-05,2.1026549802627414e-05
-4.852431811741553e-05,1.8358930446993327e-06,-2.644151754793711e-05,2.3143926227930933e-05
-4.012755016447045e-05,5.834179773955839e-06,-2.021894761128351e-05,2.4390474209212698e-05
-3.3065469324355945e-05,6.0697057051584125e-06,-1.7289094103034586e-05,2.3824568415875547e-05
-2.7235681045567617e-05,4.639072813006351e-06,-1.8164901121053845e-05,2.4104532712954096e-05
-1.972007885342464e-05,2.6912193789030425e-06,-1.755161974870134e-05,2.504504118405748e-05
-7.625581019965466e-06,3.9685114643361885e-06,-1.313804204983171e-05,2.567706542322412e-05
5.833845989400288e-06,6.759662483091233e-06,-1.159584462584462e-05,2.7875157684320584e-05
1.5907744455034845e-05,7.243596655825968e-07,-1.6740010323701426e-05,2.985048013215419e-05
1.5981057003955357e-05,-5.917534963373328e-06,-2.1194842702243477e-05,3.458707215031609e-05
4.069943315698765e-06,-1.5149760201893514e-06,-1.856775998021476e-05,4.474938032217324e-05
-7.610291959281312e-06,5.514067197509576e-06,-1.2441627404768951e-05,5.079355833004229e-05
-7.065521913318662e-06,1.162043736258056e-05,-9.054507245309651e-06,5.320612035575323e-05
-4.148422704020049e-06,2.236278487544041e-05,-7.094933607731946e-06,5.440655877464451e-05
-1.0794267836899962e-05,4.058000922668725e-05,-7.632253073097672e-06,5.433244223240763e-05
-2.3763504941598512e-05,5.681757102138363e-05,-1.2861914910899941e-05,5.064460128778592e-05
-3.343525168020278e-05,6.856835534563288e-05,-2.032353040704038e-05,4.507568519329652e-05
-3.711547105922364e-05,8.069039904512465e-05,-2.2817372155259363e-05,4.1874187445500866e-05
-3.3986445487244055e-05,9.316045907326043e-05,-2.23669849219732e-05,4.129798253416084e-05
-2.8358907002257183e-05,0.00010458956967340782,-2.330572169739753e-05,3.900378942489624e-05
-2.864787347789388e-05,0.00010910857963608578,-2.6057967261294834e-05,3.4211243473691866e-05
-3.6108798667555675e-05,0.000101096709840931,-2.6679921575123444e-05,2.9869186619180255e-05
-4.746285776491277e-05,7.928378909127787e-05,-2.4713019229238853e-05,2.697965464903973e-05
-5.227358633419499e-05,4.6334738726727664e-05,-2.2012609406374395e-05,2.5814511900534853e-05
-5.075935405329801e-05,1.3241531632957049e-05,-1.988448275369592e-05,2.248159762530122e-05
-5.2348368626553565e-05,-1.017963768390473e-05,-1.9720055206562392e-05,1.7309366739937104e-05
-6.249928992474452e-05,-1.3698653674509842e-05,-2.1062653104308993e-05,1.5329742382164113e-05
-7.10341046215035e-05,6.348203896777704e-06,-2.3706044885329902e-05,1.791640715964604e-05
-7.066693069646135e-05,3.8193662476260215e-05,-2.6346313461544923e-05,1.915157372422982e-05
-6.669668073300272e-05,6.360434053931385e-05,-2.9015664040343836e-05,1.7296717487624846e-05
-6.856802065158263e-05,8.242754847742617e-05,-3.294895213912241e-05,1.5418558177771047e-05
-7.704417657805607e-05,0.0001059471833286807,-3.522497718222439e-05,1.640107984712813e-05
-8.190868538804352e-05,0.00012280639202799648,-3.3766074921004474e-05,1.70631301443791e-05
-8.811250881990418e-05,0.00012673735909629613,-3.3973698009504005e-05,1.7903112166095525e-05
-0.00010488882981007919,0.0001356365974061191,-3.5519813536666334e-05,1.8107990399585105e-05
-0.00011259513848926872,0.0001454554294468835,-3.5714263503905386e-05,1.8695560356718488e-05
-0.00010266905155731365,0.0001390322286169976,-3.6418870877241716e-05,1.763258478604257e-05
-8.827623969409615e-05,0.00011008196452166885,-3.763398854061961e-05,1.0950110663543455e-05
-7.281667785719037e-05,6.487376958830282e-05,-3.862239100271836e-05,9.937140021065716e-06
-6.024416506988928e-05,1.9619705199147575e-05,-4.080086728208698e-05,1.3732650586462114e-05
-5.447463263408281e-05,-2.159351424779743e-05,-3.835040479316376e-05,1.6946805772022344e-05
-5.734202568419278e-05,-5.130382487550378e-05,-3.711587123689242e-05,2.1524880139622837e-05
-6.0318783653201535e-05,-7.10052190697752e-05,-3.7643028917955235e-05,2.075290831271559e-05
-6.003324961056933e-05,-8.186754712369293e-05,-3.953195482608862e-05,1.435896865586983e-05
-5.6126165873138234e-05,-8.137168333632872e-05,-3.97918229282368e-05,9.307334948971402e-06
-4.768995495396666e-05,-6.430071516660973e-05,-3.72562681150157e-05,8.029455784708261e-06
-4.493698725127615e-05,-2.7655269150272943e-05,-3.689170989673585e-05,9.422105904377531e-06
-5.760245767305605e-05,2.644550295372028e-05,-3.740224929060787e-05,1.2088560652045999e-05
-7.851702685002238e-05,8.754073496675119e-05,-3.596112583181821e-05,1.3116435184201691e-05
-9.505767957307398e-05,0.00012705780682154,-3.268501677666791e-05,1.1285052096354775e-05
-0.00010188965825363994,0.0001261098077520728,-3.192251460859552e-05,8.56483711686451e-06
-9.760768443811685e-05,9.292757022194564e-05,-3.424476381042041e-05,6.215692337718792e-06
-8.958404941949993e-05,5.170696749701165e-05,-3.824578379862942e-05,5.966527169221081e-06
-8.413515752181411e-05,2.3573074940941297e-05,-3.9681995986029506e-05,9.161308298644144e-06
-7.622352859470993e-05,1.4472329894488212e-05,-3.8369151297956705e-05,1.30742719193222e-05
-6.385718006640673e-05,1.625574441277422e-05,-3.558587559382431e-05,1.5086087842064444e-05
-5.3830273827770725e-05,2.0249020963092335e-05,-3.210624345229007e-05,1.9032828276976943e-05
-4.90700731461402e-05,2.3869342840043828e-05,-2.7267131372354925e-05,2.4816956283757463e-05
-4.8843030526768416e-05,2.61704990407452e-05,-2.380463047302328e-05,2.6213981982436962e-05
-4.9501104513183236e-05,2.4487160771968774e-05,-1.9871666154358536e-05,2.2027777959010564e-05
-4.651144263334572e-05,2.3519760361523367e-05,-1.6924830561038107e-05,2.080242666124832e-05
-4.050563802593388e-05,2.4070484869298525e-05,-1.7033369658747688e-05,2.4923552700784057e-05
-3.5484910767991096e-05,2.6038382202386856e-05,-1.7412099623470567e-05,2.8365129765006714e-05
-3.442306842771359e-05,2.4120941816363484e-05,-1.593679735378828e-05,2.8986114557483234e-05
-3.585459489841014e-05,1.9242497728555463e-05,-1.1907181033166125e-05,2.6479636289877817e-05
-3.846592881018296e-05,1.682372203504201e-05,-6.851115813333308e-06,2.620550549181644e-05
-4.401589103508741e-05,1.570555650687311e-05,-5.091989805805497e-06,2.7840404072776437e-05
-4.919268758385442e-05,1.5879873899393715e-05,-8.664795132062864e-06,2.7783698897110298e-05
-4.9185153329744935e-05,1.667883771006018e-05,-1.2319726920395624e-05,2.670597859832924e-05
-4.376633296487853e-05,2.173336542909965e-05,-1.1757469110307284e-05,2.5757615730981342e-05
-4.054547389387153e-05,2.271675293741282e-05,-1.3368323379836511e-05,2.7322861569700763e-05
-4.170851389062591e-05,1.5896510376478545e-05,-1.7234933693544008e-05,2.5968380214180797e-05
-4.551313759293407e-05,7.90947706263978e-06,-1.9673878341563977e-05,2.0819927158299834e-05
-5.0022183131659403e-05,4.060844730702229e-06,-2.0191813746350817e-05,1.604705539648421e-05
-4.875021841144189e-05,9.100856004806701e-06,-2.1503272364498116e-05,1.3310162103152834e-05
-4.321230517234653e-05,1.893411717901472e-05,-2.4701817892491817e-05,1.3432501873467118e-05
-3.766421650652774e-05,2.493246392987203e-05,-2.5255882064811885e-05,1.6219646568060853e-05
-3.496987483231351e-05,2.271554149047006e-05,-2.4489178031217307e-05,1.886754580482375e-05
-3.6918070691172034e-05,1.6440993931610137e-05,-2.2792688469053246e-05,1.9518794942996465e-05
-4.198287206236273e-05,5.735496870329371e-06,-2.0690878955065273e-05,1.94156000361545e-05
-4.4124069972895086e-05,-5.2398313528101426e-06,-2.0749730538227595e-05,2.093126931868028e-05
-4.125992927583866e-05,-6.270923222473357e-06,-2.6447685741004534e-05,2.3086417058948427e-05
-3.7384092138381675e-05,3.949318397644674e-06,-3.306338840047829e-05,2.2650579921901226e-05
-3.535208088578656e-05,1.713570236461237e-05,-3.42171588272322e-05,2.104256236634683e-05
-3.4403394238324836e-05,2.4806624423945323e-05,-3.0291794246295467e-05,2.090926318487618e-05
-3.296165959909558e-05,2.405565646768082e-05,-2.6825589884538203e-05,2.3122318452806212e-05
-3.0583243642468005e-05,2.1967814973322675e-05,-2.48172837018501e-05,2.660698737599887e-05
-3.140116677968763e-05,2.8732831196975894e-05,-2.3811762730474584e-05,2.888460767280776e-05
-3.7574114685412496e-05,4.227756289765239e-05,-2.392060741840396e-05,3.10546784021426e-05
-4.485977842705324e-05,4.945374166709371e-05,-2.4534951080568135e-05,3.257356729591265e-05
-5.101442729937844e-05,4.956478005624376e-05,-2.6354695364716463e-05,3.13071723212488e-05
-5.45305956620723e-05,5.610460721072741e-05,-2.4074497559922747e-05,3.114426363026723e-05
-5.819593570777215e-05,7.364297198364511e-05,-1.499616882938426e-05,3.2944320992100984e-05
-6.438540731323883e-05,9.097222209675238e-05,-7.220692168630194e-06,3.313881825306453e-05
-6.894298712722957e-05,9.066174243343994e-05,-8.249438906204887e-06,2.914933611464221e-05
-6.804498843848705e-05,6.775556539651006e-05,-1.5080398043210153e-05,2.179162038373761e-05
-6.447837222367525e-05,3.515890421112999e-05,-2.248244891234208e-05,1.2106422218494117e-05
-5.7954206567956135e-05,1.9669261746457778e-05,-3.0159369998727925e-05,3.427220462981495e-06
-5.0312053645029664e-05,2.9820046620443463e-05,-3.516950528137386e-05,4.211278337606927e-06
-4.4510972657008097e-05,5.130808858666569e-05,-3.480970917735249e-05,1.4504306818707846e-05
-3.7506761145778e-05,6.168382242321968e-05,-3.134444705210626e-05,2.544685594330076e-05
-2.6721683752839454e-05,5.2036069973837584e-05,-2.963361475849524e-05,3.405008828849532e-05
-1.5480074580409564e-05,3.7337045796448365e-05,-2.9961021937197074e-05,3.8474714529002085e-05
-1.1456555512268096e-05,3.246302003390156e-05,-2.884937566705048e-05,3.786331581068225e-05
-1.4832867236691527e-05,3.30483126163017e-05,-2.68718595179962e-05,3.397567706997506e-05
-1.920226713991724e-05,2.6208908820990473e-05,-2.5623166948207654e-05,3.309820021968335e-05
-2.121335273841396e-05,1.2867825716966763e-05,-2.5864463168545626e-05,3.747686787392013e-05
-2.9357552193687297e-05,2.467697413521819e-06,-2.572186895122286e-05,3.931362152798101e-05
-4.4680222345050424e-05,-2.476656845828984e-06,-2.4785527784842998e-05,3.440429281909019e-05
-5.5114600399974734e-05,-1.4001820090925321e-05,-2.2589943910134025e-05,2.9161528800614178e-05
-5.620957017526962e-05,-3.8823691284051165e-05,-2.1878271581954323e-05,2.5028899472090416e-05
-5.6523076636949554e-05,-6.432731606764719e-05,-2.7148937078891322e-05,1.9093127775704488e-05
-5.81549720664043e-05,-7.959009963087738e-05,-3.755086436285637e-05,1.6132347809616476e-05
-5.49726391909644e-05,-8.772990258876234e-05,-4.4867043470731005e-05,1.852724926720839e-05
-4.723984602605924e-05,-7.241919229272753e-05,-4.436736344359815e-05,2.1714819013141096e-05
-4.1925450204871595e-05,-1.1808677299995907e-05,-3.679085784824565e-05,2.5280874979216605e-05
-4.159759191679768e-05,6.425588071579114e-05,-2.7468697226140648e-05,3.094528801739216e-05
-4.882723806076683e-05,0.00010890894918702543,-2.4458366169710644e-05,3.1769261113367975e-05
-6.079257946112193e-05,0.00011118392285425216,-2.770500213955529e-05,2.993654925376177e-05
-5.9218429669272155e-05,9.364892321173102e-05,-3.2211115467362106e-05,3.0380939278984442e-05
-5.27092743141111e-05,8.661477477289736e-05,-3.376804306753911e-05,2.933454561571125e-05
-5.479098035721108e-05,8.774216985329986e-05,-3.545206709532067e-05,2.809323268593289e-05
-6.608904368476942e-05,9.131741535384208e-05,-3.756435398827307e-05,2.8599588404176757e-05
-8.186031482182443e-05,0.00010951839067274705,-3.79501907445956e-05,2.820457666530274e-05
-9.125337965087965e-05,0.00013684603618457913,-3.747496521100402e-05,2.668216620804742e-05
-8.944513683672994e-05,0.00015915549010969698,-3.807980101555586e-05,2.503328323655296e-05
-8.320928463945165e-05,0.0001666024181758985,-4.1534920455887914e-05,2.492506791895721e-05
-8.676072320668027e-05,0.00016224451246671379,-4.43809840362519e-05,2.4019156626309268e-05
-9.438338020117953e-05,0.00015053294191602618,-4.204930519335903e-05,2.4211014533648267e-05
-9.591631533112377e-05,0.00012925996270496398,-3.594580266508274e-05,2.540642162784934e-05
-8.651811367599294e-05,9.624996164347976e-05,-2.9672695745830424e-05,2.3252352548297495e-05
-7.42943084333092e-05,5.912476990488358e-05,-2.531956670281943e-05,1.8869051928049885e-05
-6.661163206445053e-05,3.1628373108105734e-05,-2.275179031130392e-05,1.6906327800825238e-05
-6.339639367070049e-05,1.210320169775514e-05,-2.244841743959114e-05,1.8417347746435553e-05
-6.2707404140383e-05,-2.441315473333816e-06,-2.650317946972791e-05,2.0830160792684183e-05
-6.090255919843912e-05,-7.239949809445534e-06,-3.234143150621094e-05,2.1350226234062575e-05
-5.590803993982263e-05,-6.11372684033995e-07,-3.6609671951737255e-05,2.063544889097102e-05
-4.9069483793573454e-05,1.1020224519597832e-05,-3.6183639167575166e-05,2.2062404241296463e-05
-4.4599277316592634e-05,1.9665110812638886e-05,-3.143442518194206e-05,2.2705165974912234e-05
-4.4330008677206933e-05,2.004361704166513e-05,-2.6795269150170498e-05,2.0679844965343364e-05
-4.884073860011995e-05,1.690890348982066e-05,-2.718889845709782e-05,1.7130456399172544e-05
-4.856237137573771e-05,1.4742819985258393e-05,-3.226557237212546e-05,1.3210119504947215e-05
-4.4170254113851115e-05,1.084735049516894e-05,-3.4970616979990155e-05,1.3709453014598694e-05
-3.884444595314562e-05,2.9113966775184963e-06,-3.238020508433692e-05,2.023197703238111e-05
-3.311232285341248e-05,-1.5615844404237578e-06,-2.523426701372955e-05,2.4117869543260895e-05
-3.098001252510585e-05,-2.5944420940504642e-06,-2.1014899175497703e-05,2.1631787603837438e-05
-2.8879363526357338e-05,-5.867748768650927e-06,-2.1812214981764555e-05,1.7422038581571542e-05
-2.7253674488747492e-05,-3.4281931675650412e-06,-1.8616723536979407e-05,1.9135910406475887e-05
-3.0308605346363038e-05,1.7868617305794032e-06,-1.406724095431855e-05,2.120061617461033e-05
-3.4475873690098524e-05,2.3633149339730153e-06,-1.361170052405214e-05,2.2670341422781348e-05
-3.2981282856781036e-05,2.0563500129355816e-06,-1.5947562133078463e-05,2.5724581064423546e-05
-3.135400402243249e-05,3.869300599035341e-06,-1.627103119972162e-05,2.4300503355334513e-05
-3.690745870699175e-05,4.135989456699463e-06,-1.6008363672881387e-05,2.0215193217154592e-05
-4.306537448428571e-05,3.812610430031782e-06,-2.1496021872735582e-05,1.7874614059110172e-05
-4.407691449159756e-05,5.9954509197268635e-06,-2.660757672856562e-05,1.8294191249879077e-05
-4.465229358174838e-05,9.288469300372526e-06,-2.600867264845874e-05,1.785111271601636e-05
-4.715640898211859e-05,1.0719527381297667e-05,-2.2936181267141365e-05,1.765323213476222e-05
-4.408714812598191e-05,1.0302260307071265e-05,-2.1951105736661702e-05,1.8898788766819052e-05
-3.715876300702803e-05,9.83255358733004e-06,-2.399620098003652e-05,2.0002298697363585e-05
-3.3715525205479935e-05,1.2058902939315885e-05,-2.7196789233130403e-05,1.8565397112979554e-05
-3.580158590921201e-05,1.38780760607915e-05,-3.071518585784361e-05,1.6055728337960318e-05
-4.082138912053779e-05,1.1051293768105097e-05,-3.291395114501938e-05,1.5617761164321564e-05
-4.580706081469543e-05,6.3694137679704e-06,-3.096100044785999e-05,1.6898349713301286e-05
-4.8982194130076095e-05,3.9477413338318e-06,-2.4383429263252765e-05,1.652393621043302e-05
-5.0174254283774644e-05,2.282173682033317e-06,-1.6036970919230953e-05,1.5746983990538865e-05
-5.081476774648763e-05,-1.4416055194033106e-07,-1.260903627553489e-05,1.6731823052396066e-05
-5.183617759030312e-05,2.639721969899256e-07,-1.5074116163305007e-05,1.7081496480386704e-05
-5.353665255825035e-05,3.691742222144967e-06,-1.6619005691609345e-05,1.8832646674127318e-05
-5.178616629564203e-05,1.4662447028968018e-05,-1.4584000382455997e-05,2.3490585590479895e-05
-4.747545244754292e-05,3.283861587988213e-05,-1.3187803233449813e-05,2.6953903216053732e-05
-4.65332341264002e-05,4.216993329464458e-05,-1.5424560842802748e-05,3.05144494632259e-05
-4.646776142180897e-05,3.585345984902233e-05,-1.7645324987825006e-05,3.338055466883816e-05
-4.304103276808746e-05,1.889846498670522e-05,-1.7912039766088128e-05,3.282755278632976e-05
-4.174168498138897e-05,5.100793259771308e-06,-2.2119982531876303e-05,3.018732058990281e-05
-4.482324220589362e-05,3.6685651139123365e-06,-2.703270729398355e-05,2.5402967366972007e-05
-4.856644954998046e-05,9.89452291833004e-06,-2.0663645045715384e-05,2.1892163204029202e-05
-4.833389903069474e-05,2.2209824237506837e-05,-1.4950376680644695e-05,2.1915204342803918e-05
-4.3620657379506156e-05,3.93026894016657e-05,-1.8155391444452107e-05,2.4641092750243843e-05
-3.969338649767451e-05,5.675821375916712e-05,-2.3004438844509423e-05,2.7835023502120748e-05
-4.148627704125829e-05,7.192469638539478e-05,-2.5952138457796536e-05,3.031328014913015e-05
-5.069623875897378e-05,8.400963997701183e-05,-2.5266737793572247e-05,3.264572660555132e-05
-5.875635542906821e-05,8.224234625231475e-05,-2.216092798335012e-05,3.6017569073010236e-05
-6.0169215430505574e-05,6.653982563875616e-05,-1.838935713749379e-05,3.6292120057623833e-05
-5.838982906425372e-05,4.9311733164358884e-05,-1.7975726223085076e-05,3.509886300889775e-05
-5.8807607274502516e-05,4.200493640382774e-05,-2.2991465812083334e-05,3.230277434340678e-05
-6.300510722212493e-05,4.264026938471943e-05,-2.8543225198518485e-05,2.840698834916111e-05
-6.743261474184692e-05,4.495417670113966e-05,-2.8110947823734023e-05,2.514083644200582e-05
-6.849364581285045e-05,4.220079063088633e-05,-2.426246282993816e-05,2.3466382117476314e-05
-6.450737419072539e-05,3.16816549457144e-05,-2.2233909476199187e-05,2.4598886739113368e-05
-5.987201802781783e-05,2.250244142487645e-05,-2.3035629055812024e-05,2.7310756195220165e-05
-5.900959513382986e-05,2.0294211935834028e-05,-2.5879073291434906e-05,2.946694803540595e-05
-5.901446638745256e-05,2.1734573238063604e-05,-2.767860860330984e-05,2.868167393899057e-05
-5.427303403848782e-05,2.354889511479996e-05,-2.7637037419481203e-05,2.734802728809882e-05
-4.791948231286369e-05,2.5135283067356795e-05,-2.81990160146961e-05,2.6919076844933443e-05
-4.554691258817911e-05,2.2046060621505603e-05,-3.1928026146488264e-05,2.713539834076073e-05
-4.561715104500763e-05,2.0190007489873096e-05,-3.5090139135718346e-05,2.9122069463483058e-05
-4.48085083917249e-05,2.5304518203483894e-05,-3.330773688503541e-05,3.203728192602284e-05
-4.610162795870565e-05,3.2789419492473826e-05,-3.2642125006532297e-05,3.252230089856312e-05
-5.026646249461919e-05,3.6729572457261384e-05,-3.437410487094894e-05,3.4154392778873444e-05
-5.2769184549106285e-05,4.111899033887312e-05,-3.588992331060581e-05,3.5467135603539646e-05
-4.933904347126372e-05,5.034870628151111e-05,-3.401843787287362e-05,3.6508638004306704e-05
-4.4799231545766816e-05,6.12493822700344e-05,-2.8748103432008065e-05,3.609784471336752e-05
-4.626545705832541e-05,5.993932791170664e-05,-2.3964743377291597e-05,3.223919338779524e-05
-5.171978409634903e-05,4.463780715013854e-05,-2.2503916625282727e-05,2.794494321278762e-05
-5.444945418275893e-05,3.256694253650494e-05,-2.399034747213591e-05,2.7135165510117076e-05
-4.97206456202548e-05,3.191478754160926e-05,-2.4567294531152584e-05,2.8141819711891003e-05
-4.2052215576404706e-05,3.80304227292072e-05,-2.297174432897009e-05,3.0263481676229276e-05
-4.255097883287817e-05,4.4468008127296343e-05,-2.0446301277843304e-05,3.13494419970084e-05
-4.8396661441074684e-05,4.674666706705466e-05,-1.8863573131966405e-05,2.9188373446231708e-05
-5.0995968194911256e-05,4.279510540072806e-05,-2.0078625311725773e-05,2.7133681214763783e-05
-5.006755964132026e-05,3.508080408209935e-05,-2.51440578722395e-05,2.8356980692478828e-05
-4.602832268574275e-05,2.9416676625260152e-05,-3.0469609555439092e-05,3.253337854403071e-05
-4.2770057916641235e-05,2.9217420888016932e-05,-3.06308975268621e-05,3.380992711754516e-05
-4.191699918010272e-05,3.182011641911231e-05,-2.6145411538891494e-05,3.0284882086561993e-05
-4.046996036777273e-05,3.246091728215106e-05,-2.3226750272442587e-05,2.560257416917011e-05
-3.6718563933391124e-05,3.104296774836257e-05,-2.29893448704388e-05,2.32188049267279e-05
-3.4204025723738596e-05,3.073792322538793e-05,-2.3208880520542152e-05,2.2250220354180783e-05
-3.43413048540242e-05,3.139852924505249e-05,-2.4499950086465105e-05,2.2261992853600532e-05
-3.646144614322111e-05,3.280333839938976e-05,-2.6456818886799738e-05,2.286523158545606e-05
-4.0277889638673514e-05,3.6625522625399753e-05,-2.6575036827125587e-05,2.167933234886732e-05
-4.529613579506986e-05,4.181985423201695e-05,-2.6855712349060923e-05,1.8387283489573747e-05
-4.889267438556999e-05,4.629256363841705e-05,-2.84563830064144e-05,1.8905999240814708e-05
-4.7647819883422926e-05,5.2801071433350444e-05,-2.8311183996265754e-05,2.2316038666758686e-05
-4.531729791779071e-05,5.9453261201269925e-05,-2.3883296307758428e-05,2.2756352336728014e-05
-4.846811862080358e-05,5.7038309023482725e-05,-1.9576964405132458e-05,2.049100112344604e-05
-5.6033284636214375e-05,4.7113509936025366e-05,-1.937884371727705e-05,1.8594028006191365e-05
-5.962057912256569e-05,3.7904628698015586e-05,-2.213280095020309e-05,1.9788929421338253e-05
-5.372575469664298e-05,3.2290972740156576e-05,-2.3349046387011185e-05,2.237434273411054e-05
-4.8355042963521555e-05,2.6431080186739564e-05,-2.404752012807876e-05,2.1978412405587733e-05
-4.9587531975703314e-05,1.5165720469667576e-05,-2.5301256755483337e-05,1.866808088379912e-05
-5.3584382840199396e-05,9.876971489575226e-06,-2.8186246709083207e-05,1.431862710887799e-05
-5.56950835743919e-05,1.5671595974708907e-05,-3.3547607017681e-05,1.377458556817146e-05
-5.467388837132603e-05,2.190967097703833e-05,-3.319978713989258e-05,1.760688792273868e-05
-5.65582922718022e-05,2.337514888495207e-05,-3.053836553590372e-05,2.3781423806212842e-05
-5.929390317760408e-05,2.1051584553788416e-05,-3.009273495990783e-05,2.904161374317482e-05
-5.9883506764890626e-05,1.8394814105704427e-05,-3.1198760552797467e-05,3.3602820622036234e-05
-5.79478801228106e-05,1.834300928749144e-05,-3.208256748621352e-05,3.719538653967902e-05
-5.342442818800919e-05,2.3951190087245777e-05,-3.258499418734573e-05,3.543808270478621e-05
-4.924251697957516e-05,3.308829036541283e-05,-3.3197000448126346e-05,2.9437167540891096e-05
-4.7220375563483685e-05,3.953623308916576e-05,-3.3899144909810275e-05,2.3332337150350213e-05
-4.3351341446395963e-05,3.956246291636489e-05,-3.199048660462722e-05,2.052757190540433e-05
-3.6431505577638745e-05,3.258067590650171e-05,-2.771823164948728e-05,1.931309816427529e-05
-3.0855466320645064e-05,2.3020205844659358e-05,-2.4085509721771814e-05,1.928164783748798e-05
-2.6498119041207246e-05,1.5123371667868923e-05,-2.1117779397172853e-05,1.943739152920898e-05
-2.2541164071299136e-05,9.068871804629453e-06,-2.0317695089033805e-05,1.9877117665600963e-05
-1.7825585018726997e-05,2.0218672034388874e-06,-2.3373881049337797e-05,2.1488769561983645e-05
-1.2851035535277333e-05,-8.103054824459832e-06,-2.799009052978363e-05,2.430437052680645e-05
-1.156454709416721e-05,-1.451276330044493e-05,-2.8350721549941227e-05,2.623874752316624e-05
-1.4617838132835459e-05,-1.8128992451238446e-05,-2.4561688405810855e-05,2.545851020840928e-05
-2.1505795302800834e-05,-2.5200632080668584e-05,-2.265699367853813e-05,2.4806820874800906e-05
-3.272439062129706e-05,-2.511255479475949e-05,-2.455001049384009e-05,2.9054706828901544e-05
-4.6273231419036165e-05,-2.102929283864796e-05,-2.321245483472012e-05,3.305947029730305e-05
-5.8848174376180395e-05,-1.2825927115045488e-05,-1.9380910089239478e-05,3.0886523745721206e-05
-7.057480979710817e-05,3.3714561141096056e-05,-1.6913247236516327e-05,2.4807788577163592e-05
-8.307802636409178e-05,0.00013012147974222898,-1.999499181692954e-05,2.2244603314902633e-05
-9.763400885276496e-05,0.00021850266784895211,-2.747159123828169e-05,2.089913687086664e-05
-0.0001070702273864299,0.0002254734718007967,-3.1171053706202656e-05,1.7381882571498863e-05
-0.00010685803135856986,0.00016207448788918555,-3.154650403303094e-05,1.6976753613562323e-05
-9.856344695435837e-05,9.357608360005543e-05,-3.08634880639147e-05,1.925704964378383e-05
-8.504188735969365e-05,4.9818834668258205e-05,-2.823207796609495e-05,2.48399574047653e-05
-7.524869579356164e-05,2.918054633482825e-05,-2.6624848032952286e-05,2.620370469230693e-05
-6.932411633897573e-05,2.3941391191328876e-05,-2.8016198484692723e-05,2.1665367967216298e-05
-6.527372170239687e-05,2.623022737680003e-05,-3.1011015380499884e-05,1.591424188518431e-05
-5.976970714982599e-05,3.099631067016162e-05,-3.4282445994904265e-05,1.4785468920308631e-05
-5.2842249715467915e-05,3.926261706510559e-05,-3.472939715720713e-05,1.8614295186125673e-05
-4.9085068894783035e-05,4.4742530008079484e-05,-3.069400554522872e-05,2.1114870833116584e-05
-4.9189118726644665e-05,4.2482151911826804e-05,-2.5844572519417852e-05,1.8958060536533594e-05
-4.858742613578215e-05,4.0460832678945735e-05,-2.4466873583151028e-05,1.595791763975285e-05
-4.424645157996565e-05,3.9450067561119795e-05,-2.4050466890912503e-05,1.8230901332572103e-05
-4.090822039870545e-05,3.4755274100461975e-05,-2.27826094487682e-05,2.441537071717903e-05
-4.0560204070061445e-05,2.9554184948210604e-05,-2.308154944330454e-05,2.9556118533946574e-05
-4.332814205554314e-05,3.141398337902501e-05,-2.3687747670919634e-05,2.9206135877757333e-05
-4.847949821851216e-05,3.791293056565337e-05,-2.065555781882722e-05,2.5607168936403468e-05
-5.412931932369247e-05,3.8959940866334364e-05,-1.5738607544335537e-05,2.388117354712449e-05
-5.691357364412397e-05,2.6341829652665183e-05,-1.2632831385417376e-05,2.4544873667764477e-05
-5.78228136873804e-05,-1.2373523361475236e-07,-1.3345083061722107e-05,2.3940099708852358e-05
-5.9567879361566156e-05,-3.653554813354276e-05,-1.8034606910077855e-05,2.073214272968471e-05
-6.510031380457804e-05,-7.292289228644222e-05,-2.4065868274192326e-05,1.4871589883114211e-05
-6.854114326415583e-05,-9.498601866653189e-05,-2.4672648578416556e-05,9.381894415128045e-06
-6.219860370038077e-05,-9.43932609516196e-05,-1.719290048640687e-05,7.54848588258028e-06
-5.273755232337862e-05,-7.403875497402623e-05,-1.1218938197998796e-05,9.872017471934669e-06
-4.5077944378135726e-05,-4.0386654291069135e-05,-9.852794391917996e-06,1.4393798664968926e-05
-3.490145900286734e-05,4.841389909415739e-06,-1.154487927124137e-05,2.030492396443151e-05
-2.3620572392246686e-05,4.082425220985897e-05,-1.5178067769738846e-05,2.2961534341447987e-05
-1.538923788757529e-05,5.500540282810107e-05,-1.832750058383681e-05,2.3594451704411767e-05
-1.0901672794716433e-05,6.781051342841238e-05,-2.1663869119947776e-05,2.6285602871212177e-05
-1.1422011084505357e-05,8.891849574865773e-05,-2.369683534197975e-05,2.84534089587396e-05
-1.6211228285101242e-05,0.00010658998508006334,-2.313600452907849e-05,2.8223043045727536e-05
-2.603489156172145e-05,0.00011683028424158692,-2.1976504285703413e-05,2.8617649149964564e-05
-3.960552203352563e-05,0.00012717783101834357,-2.0732206394313835e-05,2.855005004676059e-05
-5.6803826737450436e-05,0.00012862002768088132,-1.9331313524162397e-05,2.2658245143247768e-05
-7.073715823935345e-05,0.00011187112977495417,-2.090924135700334e-05,1.2920584595121909e-05
-7.45859942981042e-05,8.066488226177171e-05,-2.3440528821083717e-05,4.299080501368735e-06
-6.798316462663934e-05,4.454281224752776e-05,-2.4663971998961642e-05,-1.0795160960697103e-06
-5.760595740866847e-05,1.164611785497982e-05,-2.4700550056877546e-05,-3.3675762551865773e-06
-5.02420989505481e-05,-1.3917549040343147e-05,-2.4252041839645244e-05,-4.108857751816686e-07
-4.560544402920641e-05,-2.6178160624112934e-05,-2.3389156922348775e-05,9.183048859995324e-06
-4.1944589611375704e-05,-1.8201668353867717e-05,-2.262092675664462e-05,2.3464508558390662e-05
-3.969400859205052e-05,4.3068607737950515e-06,-2.3850867364672013e-05,3.60553567588795e-05
-3.984290742664598e-05,1.9397790310904384e-05,-2.8206453862367198e-05,4.1632913053035736e-05
-3.7290948966983706e-05,1.971847450477071e-05,-3.410621138755232e-05,4.2396226490382105e-05
-3.304634810774587e-05,1.8397120584268123e-05,-3.62838436558377e-05,4.195975634502247e-05
-2.7931662771152332e-05,2.2307980543700978e-05,-3.619460039772093e-05,4.081830775248818e-05
-2.1002546418458223e-05,2.5557787012076005e-05,-3.764607026823796e-05,3.898313661920838e-05
-1.8702859961194918e-05,2.3498612790717743e-05,-3.6632336559705436e-05,3.9088932680897415e-05
-2.3095388314686716e-05,2.0934108761139214e-05,-3.140629269182682e-05,4.0471200918545946e-05
-3.164078589179553e-05,2.1325788111425936e-05,-2.73224195552757e-05,3.701244713738561e-05
-4.023927976959385e-05,9.521309948468115e-06,-3.052095416933298e-05,2.9907405405538157e-05
-4.3157313484698534e-05,-1.3166983990231529e-05,-3.762204869417474e-05,2.5300343622802757e-05
-4.5457520172931254e-05,-2.9361357519519515e-05,-3.7763940781587735e-05,2.467669219186064e-05
-4.879905463894829e-05,-2.1969948647893034e-05,-3.487096182652749e-05,2.4168455638573505e-05
-5.213358235778287e-05,1.2454573152353987e-05,-3.3396470826119184e-05,2.4928809580160305e-05
-5.7712320995051414e-05,5.613504981738515e-05,-3.17916928906925e-05,2.572171979409177e-05
-6.550026591867208e-05,8.50127762532793e-05,-3.137283056275919e-05,2.3587113901157863e-05
-6.995686999289319e-05,8.079862163867801e-05,-3.41482664225623e-05,2.0614948880393058e-05
-6.32802548352629e-05,5.982436050544493e-05,-3.883174940710887e-05,2.1008938347222283e-05
-5.089241312816739e-05,5.166481059859507e-05,-4.005111986771226e-05,2.4609360480098985e-05
-4.3551546696107835e-05,6.112512346589938e-05,-3.851608926197514e-05,2.6392815925646573e-05
-4.605564390658401e-05,7.34103741706349e-05,-3.6686014937004074e-05,2.4954157197498716e-05
-5.3628529713023454e-05,7.45548604754731e-05,-3.6126974009675905e-05,2.461939766362775e-05
-5.512179632205516e-05,6.376568489940837e-05,-3.6349396395962685e-05,2.5988723791670054e-05
-4.9811642384156585e-05,5.135407263878733e-05,-3.637136978795752e-05,2.5788251150515862e-05
-4.845965304411948e-05,4.436396557139233e-05,-3.344918877701275e-05,2.452992157486733e-05
-5.800981671200134e-05,4.311053271521814e-05,-2.8112979634897783e-05,2.4492768716299906e-05
-7.07575018168427e-05,4.7539630031678826e-05,-2.3551208869321272e-05,2.6140385671169497e-05
-7.291569636436179e-05,5.768624032498337e-05,-2.062582461803686e-05,2.7018837499781512e-05
-6.269272125791758e-05,6.406196189345792e-05,-1.946616976056248e-05,2.6839081328944303e-05
-4.861235720454715e-05,6.0443700931500643e-05,-2.045005385298282e-05,2.4647353711770847e-05
-3.785754961427301e-05,5.707924356102012e-05,-2.21924656216288e-05,2.3142156351241283e-05
-3.2730902603361756e-05,6.368594767991453e-05,-2.2960208298172802e-05,2.4133623810485005e-05
-3.3273830922553316e-05,6.979872705414891e-05,-2.583417881396599e-05,2.9133867428754456e-05
-3.983397618867457e-05,6.787386519135907e-05,-3.0043676815694198e-05,3.282278703409247e-05
-5.081933340989053e-05,7.379857561318204e-05,-3.133447899017483e-05,2.811180274875369e-05
-5.681038601323962e-05,7.763461326248944e-05,-3.111999103566632e-05,1.922201772686094e-05
-5.265508661977947e-05,5.326763493940234e-05,-2.843466972990427e-05,1.610098115634173e-05
-4.4310105295153335e-05,1.2417323887348175e-05,-2.5167088097077794e-05,2.3371252609649673e-05
-4.2776977352332324e-05,-2.66214174189372e-05,-2.3949722162797116e-05,2.8638149160542525e-05
-4.731725130113773e-05,-5.149107164470479e-05,-2.146091173926834e-05,2.950865018647164e-05
-5.0038706831401214e-05,-6.505475903395563e-05,-1.9176753994543105e-05,3.0079811040195636e-05
-4.6157696488080546e-05,-8.362625521840528e-05,-1.73281405295711e-05,2.9238926799735054e-05
-4.203557546134107e-05,-0.00010291343642165884,-1.8071736121783033e-05,2.9074104531900957e-05
-5.295764276525006e-05,-0.00011360517237335443,-1.9363375031389296e-05,2.7287149350740947e-05
-7.16840077075176e-05,-0.00010546094563324004,-2.204615702794399e-05,2.4448034309898503e-05
-8.36038016132079e-05,-8.040721877478063e-05,-2.5380142687936313e-05,2.1917994672548957e-05
-8.261317270807922e-05,-4.8336904001189396e-05,-2.6296422220184468e-05,1.9347729903529398e-05
-7.533832103945315e-05,-1.735446130624041e-05,-2.4862471036612988e-05,1.618329406483099e-05
-7.056754839140922e-05,7.255294349306496e-06,-2.3418799173668958e-05,1.3827814655087423e-05
-7.123348041204736e-05,2.803507049975451e-05,-2.4169778043869883e-05,1.155442078015767e-05
-7.312954403460026e-05,5.0281931180506945e-05,-2.5177911084028892e-05,1.0778103387565352e-05
-6.764425052097067e-05,7.491488213418052e-05,-2.4756833227002062e-05,1.3886730812373571e-05
-5.73018187424168e-05,0.00010116520570591092,-2.051379306067247e-05,1.9550927390810102e-05
-5.358441558200866e-05,0.00013103793025948107,-1.4951681805541739e-05,2.4256638425868005e-05
-5.912135384278372e-05,0.00015353802882600576,-1.2426959074218757e-05,2.4853352442733012e-05
-6.24835302005522e-05,0.00015060638543218374,-1.4133200238575228e-05,2.2697073291055858e-05
-6.004039096296765e-05,0.00012709031580016017,-1.506591524957912e-05,2.0551782654365525e-05
-5.864131890120916e-05,0.00010313704115105793,-1.6790303561720066e-05,1.9355460608494468e-05
-6.123657658463344e-05,8.510284533258528e-05,-2.1951163944322616e-05,1.826576772145927e-05
-6.600036431336775e-05,6.491738167824224e-05,-2.494518230378162e-05,1.7325690350844525e-05
-7.075275061652064e-05,3.0683266231790185e-05,-2.3165466700447723e-05,1.799780329747591e-05
-6.835790554760024e-05,-7.276346877915785e-06,-2.151206717826426e-05,2.155322363250889e-05
-6.016502811689861e-05,-2.3999364202609286e-05,-2.520728412491735e-05,2.266895171487704e-05
-5.275752846500836e-05,-1.652794708206784e-05,-2.9836228350177407e-05,2.1196994566707872e-05
-5.230901297181845e-05,-6.491773547168123e-06,-2.936594137281645e-05,2.2209505914361216e-05
-5.010694439988583e-05,2.307122258571326e-06,-2.509989462851081e-05,2.4812428819132037e-05
-4.605825961334631e-05,1.57525937538594e-05,-2.146199403796345e-05,2.528749428165611e-05
-4.821675975108519e-05,2.5774130335776135e-05,-2.0471939933486283e-05,2.1662581275450066e-05
-5.078492176835425e-05,3.353781721671112e-05,-1.9787770725088194e-05,1.8289676518179476e-05
-4.811132748727687e-05,3.9070568163879216e-05,-2.0763874999829568e-05,1.987222822208423e-05
-4.206019366392866e-05,4.0241448004962876e-05,-2.225616481155157e-05,2.094607953040395e-05
-4.3389041820773855e-05,3.954212661483325e-05,-2.428173138468992e-05,1.8478795027476735e-05
-4.908870323561132e-05,3.53553332388401e-05,-2.755595778580755e-05,1.4565469427907374e-05
-5.073630381957628e-05,3.0122690077405423e-05,-2.8898395612486638e-05,1.4112371900409926e-05
-4.424253711476922e-05,2.5907727831508964e-05,-2.7125282940687612e-05,1.8132286641048267e-05
-3.561440826160833e-05,2.4202619897550903e-05,-2.4881162971723825e-05,2.0115132429054938e-05
-3.2403593650087714e-05,2.3536860680906102e-05,-2.444385245325975e-05,1.8647615434019826e-05
-3.663961615529843e-05,2.3427888663718477e-05,-2.8324107915977947e-05,1.5866904504946433e-05
-4.107015047338791e-05,2.2827742213848978e-05,-3.549571556504816e-05,1.2621087989828084e-05
-4.149364758632146e-05,2.0725148715428077e-05,-4.017842002213001e-05,8.728110515221488e-06
-4.121707388549112e-05,2.1849056793143973e-05,-3.933153493562713e-05,6.34413345323992e-06
-4.2244315409334376e-05,2.882915759983007e-05,-3.355281660333276e-05,7.853393981349654e-06
-4.233232175465673e-05,3.723488771356642e-05,-2.696308001759462e-05,1.2624171176867094e-05
-4.1169769247062504e-05,4.058103877468966e-05,-2.3140330085880123e-05,1.934877764142584e-05
-4.222395727992989e-05,4.191786138108e-05,-2.3069203962222673e-05,2.638350815686863e-05
-4.3695887143258005e-05,4.438926407601684e-05,-2.4115595806506462e-05,2.879231033148244e-05
-4.4395103032002226e-05,4.957436249242164e-05,-2.499536276445724e-05,2.5905752409016714e-05
-4.2452593334019184e-05,5.652314212056808e-05,-2.774021959339734e-05,2.225502066721674e-05
-3.845773608190939e-05,5.947124009253457e-05,-3.086488140979782e-05,2.079523073916789e-05
-3.217467019567266e-05,5.874561975360848e-05,-3.059120717807673e-05,2.1139991076779552e-05
-2.9313043341971934e-05,5.846477142767981e-05,-2.763821066764649e-05,1.8860411728383042e-05
-3.249086148571223e-05,5.864037302671932e-05,-2.3222046365845017e-05,1.7297097656410187e-05
-3.738430677913129e-05,5.590224463958293e-05,-2.1582878616754897e-05,2.214513733633794e-05
-3.836239193333313e-05,4.5164582843426615e-05,-2.1505791664822027e-05,2.89700401481241e-05
-3.786362867685966e-05,2.9134604119462892e-05,-2.1950194422970526e-05,3.244643812649883e-05
-3.8784288335591555e-05,2.111157482431736e-05,-2.2705587980453856e-05,3.2889591238927096e-05
-4.108836947125383e-05,2.302791654074099e-05,-2.324905653949827e-05,3.312700937385671e-05
-4.707800690084696e-05,2.464023964421358e-05,-2.463111377437599e-05,3.3253130823140964e-05
-5.0649159675231203e-05,2.446755752316676e-05,-2.7224741643294692e-05,3.3620395697653294e-05
-4.775707930093631e-05,2.3706328647676855e-05,-2.7513802706380375e-05,3.299411400803365e-05
-4.056939360452816e-05,2.356614641030319e-05,-2.4895869501051493e-05,3.158937761327252e-05
-3.8495269109262154e-05,2.274489088449627e-05,-2.222000330220908e-05,3.0594903364544734e-05
-4.263268056092784e-05,2.1414083676063456e-05,-2.1794023268739693e-05,2.7420572223491035e-05
-4.826261647394858e-05,1.8182636267738417e-05,-2.718087489483878e-05,2.368273271713406e-05
-5.096381573821418e-05,1.5805182556505315e-05,-3.114411811111495e-05,2.283682806591969e-05
-5.184397741686553e-05,1.6536932889721356e-05,-2.8199548978591338e-05,2.4707596821826883e-05
-5.5403943406417966e-05,1.7494983694632538e-05,-2.2185880879987963e-05,2.626108289405238e-05
-6.065597335691564e-05,1.7427853890694678e-05,-2.048681562882848e-05,2.5264269424951635e-05
-6.153703725431114e-05,1.785645872587338e-05,-2.2978867491474375e-05,2.333134580112528e-05
-5.93847144045867e-05,1.8208285837317817e-05,-2.4521068553440273e-05,2.5668950911494903e-05
-6.035178012098186e-05,1.7272499462706037e-05,-2.42471978708636e-05,2.878740087908227e-05
-6.361032865243033e-05,1.794117270037532e-05,-2.7048014089814387e-05,2.7310468794894405e-05
-6.56749980407767e-05,1.8792192349792458e-05,-3.0934461392462254e-05,2.50120647251606e-05
-6.226234836503863e-05,1.9844224880216643e-05,-3.1756902899360284e-05,2.2278059987002052e-05
-5.696489097317681e-05,2.4419185137958266e-05,-3.06494694086723e-05,2.1090418158564717e-05
-5.4800610087113455e-05,2.9730890673818067e-05,-2.7492118533700705e-05,2.4571121684857644e-05
-5.776670150225982e-05,2.93759694613982e-05,-2.662820043042302e-05,2.6634168534656055e-05
-6.092477633501403e-05,2.7914791644434445e-05,-2.991441397171002e-05,2.4125698473653756e-05
-5.6817814765963703e-05,3.168774492223747e-05,-2.853720070561394e-05,2.3035061531118117e-05
-4.8621695896144956e-05,4.296916085877456e-05,-2.3120484911487438e-05,2.5420824385946617e-05
-4.693184746429324e-05,5.5736407375661656e-05,-2.1842250134795904e-05,2.703841164475307e-05
-4.909370545647107e-05,6.106377259129658e-05,-2.5055045625776984e-05,2.9373324650805444e-05
-4.814182466361672e-05,5.7513840147294104e-05,-2.90740244963672e-05,3.2118838134920225e-05
-4.508134225034155e-05,5.089853220852092e-05,-3.300965181551874e-05,3.0276289180619642e-05
-4.6226596168708056e-05,4.37454909842927e-05,-3.571618799469434e-05,2.7335139748174697e-05
-4.952806557412259e-05,3.9082013245206326e-05,-3.4138418413931504e-05,2.6519930543145165e-05
-5.106086246087216e-05,3.5846060200128704e-05,-3.2865300454432145e-05,2.537118416512385e-05
-5.1045240979874507e-05,3.102404662058689e-05,-3.325994475744665e-05,2.4439859771518968e-05
-4.96045577165205e-05,2.9885386538808234e-05,-3.2078332878882065e-05,2.472951564413961e-05
-4.5842447434552014e-05,3.492834002827294e-05,-2.9497221476049162e-05,2.6080509996972978e-05
-3.944218406104483e-05,4.147551589994691e-05,-2.8768303309334442e-05,2.890533141908236e-05
-3.4582109947223216e-05,4.3639145587803796e-05,-2.7680103812599555e-05,2.9812214052071795e-05
-3.424781243666075e-05,3.995247243437916e-05,-2.528386721678544e-05,2.7910225981031545e-05
-3.865345934173092e-05,3.5542580008041114e-05,-2.3111735572456382e-05,2.5620931410230696e-05
-4.340748637332581e-05,3.64658008038532e-05,-2.457793198118452e-05,2.4223636501119472e-05
-4.634857032215223e-05,4.1699848225107417e-05,-2.8334801754681394e-05,2.399669938313309e-05
-4.819145760848187e-05,4.4434531446313486e-05,-2.8013526389258914e-05,2.540309651521966e-05
-4.9244321417063475e-05,4.094234463991597e-05,-2.6197802071692422e-05,2.5938970793504268e-05
-4.868732503382489e-05,3.565049701137468e-05,-2.7544934710022062e-05,2.351090734009631e-05
-4.845424700761214e-05,3.2865224056877196e-05,-3.0005616281414405e-05,2.1754216504632495e-05
-4.7044100938364863e-05,3.727918374352157e-05,-3.0771454476052895e-05,2.4204564397223294e-05
-4.3894280679523945e-05,4.481023643165827e-05,-2.8485623261076398e-05,2.5215218556695618e-05
-4.059174534631893e-05,4.9057587602874264e-05,-2.7080966901849024e-05,2.289719668624457e-05
-3.7522917409660295e-05,4.958700083079748e-05,-2.8848717192886397e-05,2.30781442951411e-05
-3.330999243189581e-05,4.341087696957402e-05,-2.8599084544111975e-05,2.4959892471088096e-05
-3.227048728149384e-05,3.6159184674033895e-05,-2.3227548808790743e-05,2.8125205062679015e-05
-3.6278357583796605e-05,3.4029551898129284e-05,-1.5367011656053364e-05,3.0887727916706353e-05
-3.894475958077237e-05,3.6470810300670564e-05,-1.1143646588607226e-05,3.0282162697403692e-05
-3.6853260098723695e-05,4.148146399529651e-05,-8.028893716982566e-06,2.674930146895349e-05
-3.6792564060306177e-05,4.0011873352341354e-05,-8.4473576862365e-06,2.4035745809669606e-05
-4.3327934690751135e-05,2.542819311202038e-05,-1.062281535268994e-05,2.4370992832700722e-05
-4.585837814374827e-05,6.296741048572585e-06,-9.740826499182731e-06,2.515414780646097e-05
-4.24489080614876e-05,-3.9702340473013464e-06,-6.586786184925586e-06,2.390290865150746e-05
-4.208226891933009e-05,-2.3895995582279284e-06,-5.283620339469053e-06,2.274071994179394e-05
-4.81495117128361e-05,1.6214953575399704e-06,-9.099073395191226e-06,2.4314504116773605e-05
-5.31441874045413e-05,3.596070996536582e-07,-1.4837597518635448e-05,2.6591878850013018e-05
-5.367923222365789e-05,-2.0949503323208774e-06,-1.7537484382046387e-05,2.6525356588535942e-05
-5.416060594143346e-05,5.10392226260592e-07,-1.5575356883346103e-05,2.496841989341192e-05
-5.62536770303268e-05,5.983689334243536e-06,-1.4521706361847464e-05,2.273506106575951e-05
-5.9981168305967e-05,3.929476861230796e-06,-1.7272679542656988e-05,2.181843046855647e-05
-6.544587813550606e-05,-2.7306812171445927e-06,-2.17052274820162e-05,2.334668897674419e-05
-7.033233850961551e-05,-9.665328661867534e-07,-2.3771905034664087e-05,2.4710625439183787e-05
-6.981458864174783e-05,1.568865991430357e-05,-2.1744612240581773e-05,2.4966868295450695e-05
-6.676703196717426e-05,4.399594399728812e-05,-1.7910882888827473e-05,2.3108976165531203e-05
-6.86395651428029e-05,7.859130710130557e-05,-1.8492912204237655e-05,1.8837405150406994e-05
-7.347627979470417e-05,0.00010239439143333584,-2.3001673980616033e-05,1.8734555851551704e-05
-7.665092562092468e-05,9.82398196356371e-05,-2.5315279344795272e-05,2.6170282581006177e-05
-7.723249291302636e-05,8.411768067162484e-05,-2.5844989067991264e-05,3.431627555983141e-05
-7.7858567237854e-05,8.19744382170029e-05,-2.6331570552429184e-05,3.6165376513963565e-05
-7.774005644023418e-05,7.760867447359487e-05,-2.4567765649408102e-05,3.285681668785401e-05
-7.552018360001966e-05,5.971287828288041e-05,-2.1956515411147848e-05,2.9501208700821735e-05
-7.237226964207366e-05,3.744668356375769e-05,-2.543860136938747e-05,2.493680403858889e-05
-6.669954746030271e-05,3.5934524930780753e-05,-2.9855336833861656e-05,2.1372570699895732e-05
-5.8401754358783364e-05,5.4685464419890195e-05,-2.8705278964480385e-05,2.055129880318418e-05
-4.8621786845615134e-05,6.255681364564225e-05,-2.74577978416346e-05,2.0208228306728415e-05
-4.5695727749262005e-05,6.103454506956041e-05,-2.7856714950758033e-05,2.159132964152377e-05
-4.700327190221287e-05,6.167453102534637e-05,-3.137208113912493e-05,2.3038850486045703e-05
-4.863103822572157e-05,7.033788278931752e-05,-3.5014010791201144e-05,2.040755862253718e-05
-5.186374983168207e-05,8.131646609399468e-05,-3.508877853164449e-05,1.6813377442304045e-05
-5.610783045995049e-05,8.516731031704694e-05,-3.409329292480834e-05,1.354230334982276e-05
-6.152894638944417e-05,7.515006291214377e-05,-3.4891098039224744e-05,1.0210821528744418e-05
-6.524435593746603e-05,5.999528002575971e-05,-3.54447984136641e-05,9.452021004108246e-06
-6.788922473788261e-05,5.282725760480389e-05,-3.383606599527411e-05,1.2450509530026466e-05
-6.833548832219094e-05,5.092429637443274e-05,-3.130015829810873e-05,1.8695933249546215e-05
-6.466566992457956e-05,4.386161526781507e-05,-2.940088052127976e-05,2.2752694349037483e-05
-5.862366742803715e-05,3.239450234104879e-05,-3.015128822880797e-05,2.1670759451808408e-05
-5.1696188165806234e-05,2.5763973098946735e-05,-3.2061096135294065e-05,1.988828444154933e-05
-4.4625030568568036e-05,2.9705895940423943e-05,-3.145466689602472e-05,2.1589563402812928e-05
-4.197046655463055e-05,4.1250103095080703e-05,-2.8843292966485023e-05,2.2383097530109808e-05
-4.3616655602818355e-05,4.506984987528995e-05,-2.739499177550897e-05,1.9154173060087487e-05
-4.6267716243164614e-05,3.394409941392951e-05,-2.677615702850744e-05,1.8114398699253798e-05
-4.6464181650662795e-05,1.6623616829747334e-05,-2.8669965104199946e-05,2.155995389330201e-05
-4.52092062914744e-05,6.818933343311073e-06,-3.0775794584769756e-05,2.643306288518943e-05
-4.4369597162585706e-05,5.300594693835592e-06,-2.9167687898734584e-05,3.040798219444696e-05
-4.185602301731706e-05,1.1686554898915347e-05,-2.753313492576126e-05,3.0502698791678995e-05
-3.525113788782619e-05,2.4932334781624377e-05,-2.7540540031623095e-05,2.8918690077262e-05
-2.8506961825769395e-05,3.661509254015982e-05,-2.47458228841424e-05,2.5912428100127727e-05
-2.4811535695334896e-05,3.968490636907518e-05,-2.2120002540759742e-05,2.142686935258098e-05
-2.0803654479095712e-05,3.295049100415781e-05,-2.3906568458187394e-05,2.091321766783949e-05
-1.964437251444906e-05,1.4954573998693377e-05,-2.7437941753305495e-05,2.521776332287118e-05
-1.9702922145370394e-05,-8.15845123725012e-06,-2.9947930670459755e-05,2.9404567612800747e-05
-1.7512853446532972e-05,-2.374247196712531e-05,-3.256436684750952e-05,2.9216105758678168e-05
-1.5821280612726696e-05,-2.755523382802494e-05,-3.395585736143403e-05,2.697705895116087e-05
-1.6305717508657835e-05,-2.501566632417962e-05,-3.2833038858370855e-05,2.787914672808256e-05
-2.319376108061988e-05,-1.8666230971575715e-05,-2.9671500669792295e-05,2.7827925805468112e-05
-3.6860667023574933e-05,-1.0234278306597844e-05,-2.8556623874465004e-05,2.3971733753569424e-05
-4.9632126319920644e-05,2.978619306759356e-07,-3.413414742681198e-05,1.961406451300718e-05
-5.497081292560324e-05,1.3984174074721523e-05,-3.665316762635484e-05,1.782301114872098e-05
-5.334652087185532e-05,3.2328025554306805e-05,-3.305933569208719e-05,2.188493454013951e-05
-4.533217361313291e-05,5.330570638761856e-05,-2.9503265977837145e-05,2.6758814783534035e-05
-3.36061384587083e-05,7.165642455220222e-05,-2.851836325135082e-05,2.630985909490846e-05
-2.648743975441903e-05,8.547023753635585e-05,-2.8555397875607014e-05,2.307077738805674e-05
-3.059817390749231e-05,8.953241194831207e-05,-2.8509623007266782e-05,2.3141674319049343e-05
-4.223136420478113e-05,7.688917685300112e-05,-2.805120857374277e-05,2.471624429745134e-05
-5.08117227582261e-05,4.81270944874268e-05,-2.731457607296761e-05,2.460672112647444e-05
-5.2850955398753285e-05,1.1340208402543794e-05,-2.9109680326655507e-05,2.2596905182581395e-05
-5.195880294195376e-05,-2.6357010938227177e-05,-3.272229150752537e-05,2.0082736227777787e-05
-5.303859506966546e-05,-6.105968350311741e-05,-3.3260097552556545e-05,1.8742239262792282e-05
-5.53474310436286e-05,-8.056897786445916e-05,-3.0233086363296025e-05,1.845464612415526e-05
-5.5483327741967514e-05,-7.446610106853768e-05,-2.8020884201396257e-05,1.8987557268701494e-05
-5.3699404816143215e-05,-4.728923158836551e-05,-2.9870045182178728e-05,2.1806423319503665e-05
-5.1296698075020686e-05,-4.794761480297893e-06,-3.521917824400589e-05,2.6569969122647308e-05
-4.987600914319046e-05,3.4791388316079974e-05,-3.689807272166945e-05,2.714480615395587e-05
-5.395231710281223e-05,5.228719237493351e-05,-3.028904575330671e-05,2.4383172785746865e-05
-5.755522579420358e-05,5.400215741246939e-05,-2.2980928406468593e-05,2.4918097551562823e-05
-6.015267354086973e-05,4.518091009231284e-05,-2.240213143522851e-05,2.482825038896408e-05
-6.375932571245357e-05,1.8838965843315236e-05,-2.3127797248889692e-05,2.36773157666903e-05
-7.221069245133549e-05,-1.2546737707452849e-05,-2.2630381863564253e-05,2.186500387324486e-05
-8.00220004748553e-05,-3.751894473680295e-05,-2.294083242304623e-05,1.5382673154817894e-05
-7.344735786318779e-05,-4.618125603883527e-05,-2.2291631466941908e-05,1.0602385373204015e-05
-6.502815813291818e-05,-2.9432256269501522e-05,-1.9287852410343476e-05,1.2218716619827319e-05
-6.115373253123835e-05,-1.2217331004649168e-06,-1.5913978131720796e-05,1.8011640349868685e-05
-5.999427230563015e-05,2.3465679987566546e-05,-1.292400702368468e-05,2.397174648649525e-05
-6.011243749526329e-05,3.781149280257523e-05,-1.3871844203094952e-05,3.166515307384543e-05
-6.165305967442691e-05,3.688627839437686e-05,-1.6997273633023724e-05,3.702438698383048e-05
-5.9903373767156154e-05,2.444891470076982e-05,-1.988742224057205e-05,3.513528281473555e-05
-5.7127646869048476e-05,9.808580216486007e-06,-2.2122529117041267e-05,3.027515958820004e-05
-5.887489896849729e-05,-2.312636979695526e-07,-2.127696279785596e-05,2.7235033485339954e-05
-6.209983257576823e-05,-3.888149535669072e-07,-1.9475242879707366e-05,2.5744044251041487e-05
-6.222480442374945e-05,9.286399290431291e-06,-1.9924887965316884e-05,2.5583683964214288e-05
-6.109034438850358e-05,1.9222132323193364e-05,-2.5849498342722654e-05,2.567340197856538e-05
-6.379609112627804e-05,2.5762265067896806e-05,-3.410314820939675e-05,2.5805509721976705e-05
-6.732728070346639e-05,3.836900941678323e-05,-3.826127067441121e-05,2.8796192054869607e-05
-6.697654316667467e-05,5.5352418712573126e-05,-3.6195284337736666e-05,3.274013215559535e-05
-6.242311792448163e-05,5.89466180827003e-05,-3.4641041565919295e-05,3.592667781049386e-05
-5.725300798076205e-05,4.306139817344956e-05,-3.711421595653519e-05,3.7321809941204265e-05
-5.504521686816588e-05,2.2700914996676147e-05,-3.994530561612919e-05,3.3631062251515687e-05
-5.754837911808863e-05,1.4410358744498808e-05,-3.994348298874684e-05,2.7416781449574046e-05
-5.7910987379727885e-05,2.3936087018228136e-05,-3.744641799130477e-05,2.5817846108111553e-05
-5.269817847874947e-05,4.2316343751735985e-05,-3.255191768403165e-05,2.9902263122494332e-05
-4.568621079670265e-05,5.803747262689285e-05,-2.8203970941831358e-05,3.2492433092556894e-05
-4.655945667764172e-05,6.99593874742277e-05,-2.6013274691649713e-05,2.888322160288226e-05
-5.110833080834709e-05,8.162623998941854e-05,-2.685493564058561e-05,2.30659861699678e-05
-4.8254747525788844e-05,9.251796291209757e-05,-3.217874836991541e-05,2.2007750885677524e-05
-3.660536458482966e-05,0.00010060615022666752,-3.8350837712641805e-05,2.315986785106361e-05
-2.765694989648182e-05,0.00010666043817764148,-4.189253377262503e-05,2.2278425603872165e-05
-3.1342027796199545e-05,0.00011805567919509485,-3.9618662412976846e-05,2.26938627747586e-05
-4.226499731885269e-05,0.00013273146760184318,-3.431240838835947e-05,1.882907781691756e-05
-4.681885184254497e-05,0.00013281307474244386,-2.894833050959278e-05,1.4742574421688914e-05
-4.421871199156158e-05,0.00010996160563081503,-2.568634954513982e-05,1.4188985005603172e-05
-4.05292485083919e-05,7.404021744150668e-05,-2.4450506316497922e-05,1.5666695617255755e-05
-3.704811024363153e-05,3.530114554450847e-05,-2.103309270751197e-05,1.653680737945251e-05
-3.614875822677277e-05,-4.139719749218784e-06,-1.581919968884904e-05,1.545652594359126e-05
-3.6386434658197686e-05,-3.459860818111338e-05,-1.1474975508463103e-05,1.4989932424214203e-05
-3.695383929880336e-05,-4.170683314441703e-05,-9.455920917389449e-06,1.5375077055068687e-05
-3.826510510407388e-05,-2.0952942577423528e-05,-7.22152117305086e-06,1.6580126612097956e-05
-3.936000575777143e-05,1.948917270055972e-05,-2.772458174149506e-06,1.904483542602975e-05
-3.6503806768450886e-05,6.814845255576074e-05,2.964886107292841e-06,2.327744550711941e-05
-3.297492003184743e-05,0.00011221461318200454,7.489200470445212e-06,2.874059100577142e-05
-3.2947496947599575e-05,0.00014047710283193737,1.0616700819809921e-05,3.7793135561514646e-05
-3.2687396014807746e-05,0.0001449769188184291,1.5082432582858019e-05,4.840660039917566e-05
-3.3950200304389e-05,0.00012283562682569027,2.201017559855245e-05,5.222358595347032e-05
-4.242635259288363e-05,8.8127089838963e-05,2.3906613932922482e-05,4.291838558856398e-05
-4.924186214338988e-05,5.5669934226898476e-05,1.2451077964215074e-05,2.91450724034803e-05
-5.0997583457501605e-05,2.8789670977857895e-05,-8.451122084807139e-06,2.4060331270447932e-05
-5.282813071971759e-05,1.7479173038736917e-05,-3.179735358571634e-05,2.8152464437880553e-05
-5.301313285599463e-05,2.7887566830031574e-05,-5.100829730508849e-05,3.159726475132629e-05
-5.4016309150028974e-05,3.4735145163722336e-05,-6.141734775155783e-05,2.539372508181259e-05
-5.812543531646952e-05,6.99545171300997e-06,-6.612369179492816e-05,1.658169821894262e-05
-6.21042272541672e-05,-4.8310586862498894e-05,-7.164342241594568e-05,1.5175822227320168e-05
-6.078591832192615e-05,-8.0012199759949e-05,-6.930829113116488e-05,2.003665576921776e-05
-4.8958376282826066e-05,-6.364254659274593e-05,-5.561697616940364e-05,2.6641369913704693e-05
-3.778094833251089e-05,-2.9831975552951917e-05,-4.081073711859062e-05,2.6724237613962032e-05
-3.439750071265735e-05,-1.2092689303244697e-06,-3.402153743081726e-05,2.444454003125429e-05
-3.757480953936465e-05,2.154263165721204e-05,-4.060125138494186e-05,2.2561653167940676e-05
-4.4869397243019193e-05,4.51463638455607e-05,-4.627669841283932e-05,2.143039819202386e-05
-5.1144903409294784e-05,6.421310536097735e-05,-4.2749019485199824e-05,1.923771014844533e-05
-5.7867680880008265e-05,6.681073864456266e-05,-3.480169834801927e-05,1.4105976333667058e-05
-6.301557004917413e-05,5.83448818360921e-05,-2.94099809252657e-05,1.0495374226593412e-05
-6.557092274306342e-05,4.381853068480268e-05,-2.9945569622213952e-05,9.737565960676875e-06
-6.697077333228663e-05,1.9590090232668445e-05,-3.183808075846173e-05,1.0602378097246401e-05
