-2.40408717218088e-05,4.13382840633858e-05,-2.7042460715165362e-05,2.0212497474858537e-05
-2.7324131224304438e-05,3.7934227293590084e-05,-2.5243958589271642e-05,2.2631660613114946e-05
-3.349897815496661e-05,3.2585925509920344e-05,-2.7106632842333056e-05,2.3712249458185397e-05
-3.857529009110294e-05,2.939837759186048e-05,-2.9441091101034544e-05,2.334762211830821e-05
-4.0819941204972565e-05,2.2395368432626128e-05,-3.688847573357634e-05,2.47992775257444e-05
-4.233192157698795e-05,1.647399039939046e-05,-4.572239413391799e-05,3.114685750915669e-05
-4.33118584624026e-05,2.0447816496016458e-05,-4.782449468621053e-05,4.051620271638967e-05
-4.68892467324622e-05,3.0409579267143272e-05,-4.1968942241510376e-05,4.590484968503006e-05
-5.212732503423467e-05,3.782307612709701e-05,-3.622835720307194e-05,4.087875277036801e-05
-5.276037336443551e-05,3.780118640861474e-05,-3.379922054591589e-05,3.350704355398193e-05
-5.012604742660187e-05,3.496080535114743e-05,-3.102194386883639e-05,3.1281633710023016e-05
-4.905424430035055e-05,3.518279117997736e-05,-2.7793028493761085e-05,3.167498289258219e-05
-4.881616041529924e-05,3.961365291615948e-05,-2.6357758542872034e-05,3.372559149283916e-05
-4.751478263642639e-05,4.07085899496451e-05,-2.604500696179457e-05,3.71414098481182e-05
-4.542921305983327e-05,3.739387102541514e-05,-2.5834600819507614e-05,4.003785943496041e-05
-4.2887881136266515e-05,3.0411762054427527e-05,-2.5996207114076242e-05,3.932015169993974e-05
-3.6539458960760385e-05,1.8113987607648596e-05,-2.5098686819546856e-05,3.5495781048666686e-05
-2.8234338969923556e-05,5.014023372496013e-06,-2.181778290832881e-05,3.199546335963532e-05
-2.3592152501805685e-05,-2.4487107452841883e-07,-1.797444019757677e-05,3.342591298860498e-05
-2.6075260393554345e-05,3.139724867651239e-06,-1.8024902601609938e-05,3.685228148242459e-05
-3.7418165447888896e-05,6.745895007043146e-06,-2.398817741777748e-05,3.4798104024957865e-05
-4.715670729638077e-05,9.086802492674906e-06,-3.1195897463476285e-05,2.9119142709532753e-05
-4.5031025365460664e-05,1.3508591109712142e-05,-3.183375156368129e-05,2.2554089810000733e-05
-3.697849388117902e-05,2.2196634745341726e-05,-2.7006957679986954e-05,1.929582685988862e-05
-2.650993519637268e-05,3.3868822356453165e-05,-2.2378002540790476e-05,2.1807407392770983e-05
-1.8565435311757028e-05,4.3270407331874594e-05,-1.993121622945182e-05,2.3161270291893743e-05
-1.9941073333029635e-05,5.518571924767457e-05,-1.8764016203931533e-05,2.3465987396775745e-05
-2.7532203603186645e-05,7.92975042713806e-05,-1.9114908354822546e-05,1.808174238249194e-05
-4.066069232067093e-05,9.844081068877131e-05,-2.1365340217016637e-05,1.4914804523868952e-05
-5.600134318228811e-05,9.160920308204368e-05,-2.4763867259025574e-05,1.887538928713184e-05
-6.815668166382238e-05,6.0956404922762886e-05,-2.7838475944008678e-05,2.06194854399655e-05
-7.819632446626201e-05,3.368850957485847e-05,-3.070654202019796e-05,1.990259625017643e-05
-8.311386773129925e-05,3.2450199796585366e-05,-3.0565279303118587e-05,1.3407708138402086e-05
-7.923405064502731e-05,4.9627695261733606e-05,-2.7190128093934618e-05,8.450765562884044e-06
-7.091084262356162e-05,6.592638237634674e-05,-2.3552292987005785e-05,8.654383236716967e-06
-6.702292012050748e-05,6.844269228167832e-05,-2.042815503955353e-05,1.2130525647080503e-05
-6.650349678238854e-05,5.980021887808107e-05,-1.826652260206174e-05,1.559813790663611e-05
-6.714992923662066e-05,4.82260475109797e-05,-1.9994553440483287e-05,1.5879555576248094e-05
-6.805884186178446e-05,3.8713260437361896e-05,-2.4277840566355735e-05,1.6608961232122965e-05
-6.392926297849044e-05,3.513167393975891e-05,-2.7950753064942546e-05,1.9618326405179687e-05
-5.4986732720863074e-05,3.3835523936431855e-05,-2.9118542443029583e-05,2.1275682229315862e-05
-4.660241029341705e-05,2.887045411625877e-05,-2.7961797968600877e-05,1.9140050426358357e-05
-4.196443114778958e-05,1.5445257304236293e-05,-2.7744759790948592e-05,1.2557953596115112e-05
-4.058107151649892e-05,-6.07294123255997e-06,-2.9628179618157446e-05,5.891831278859172e-06
-3.948868470615707e-05,-3.0508695999742486e-05,-3.162776556564495e-05,3.069323611271102e-06
-3.3898693800438195e-05,-5.60130356461741e-05,-3.014281355717685e-05,1.8799379404299543e-06
-2.406045859970618e-05,-7.484236994059756e-05,-2.6336578230257146e-05,2.3836621494410792e-06
-1.7163358279503882e-05,-6.49769208393991e-05,-2.3431226509273984e-05,8.922862434701528e-06
-1.8222412109025754e-05,-1.2782953490386717e-05,-2.483273419784382e-05,1.895508285087999e-05
-2.157002018066123e-05,5.4862906836206093e-05,-3.0497629268211313e-05,2.6055849957629107e-05
-2.5558798370184377e-05,9.276544733438641e-05,-3.611024294514209e-05,2.9219350835774094e-05
-3.4983575460501015e-05,9.946967475116253e-05,-3.694175757118501e-05,2.6946059733745642e-05
-4.792366235051304e-05,9.787624003365636e-05,-3.261533856857568e-05,2.1981697500450537e-05
-5.868062362424098e-05,9.222430526278913e-05,-2.6903097023023292e-05,1.824974788178224e-05
-6.751030741725117e-05,7.708396879024804e-05,-2.4758826839388348e-05,1.974747283384204e-05
-7.117939094314352e-05,5.230563328950666e-05,-2.435711576254107e-05,2.6281384634785354e-05
-7.104775431798771e-05,2.78385377896484e-05,-2.1646241293638013e-05,3.0365785278263502e-05
-7.050317071843892e-05,1.448780585633358e-05,-2.196748391725123e-05,2.535445491957944e-05
-7.365324563579634e-05,1.6542369849048555e-05,-2.6701938622863963e-05,1.937087108672131e-05
-7.880078919697553e-05,2.4020129785640165e-05,-2.689004031708464e-05,1.9416273062233813e-05
-8.187032653950155e-05,2.6246305424137972e-05,-2.343914093216881e-05,1.8328657461097464e-05
-8.636415441287681e-05,1.4112614735495299e-05,-2.2924854420125484e-05,1.5958854419295676e-05
-8.51479489938356e-05,-7.997753527888563e-06,-2.4003093130886555e-05,1.6529662389075384e-05
-7.731216464890167e-05,-2.2908110622665845e-05,-2.6832747607841156e-05,1.7513979400973767e-05
-6.647975533269346e-05,-1.455486926715821e-05,-2.8827000278397463e-05,1.7441396266804077e-05
-5.690821126336232e-05,1.3834896890330128e-05,-2.8784346795873716e-05,1.914070890052244e-05
-4.933155651087873e-05,4.0656086639501154e-05,-2.734546251303982e-05,2.3770515326759778e-05
-4.4143649574834853e-05,5.57616185687948e-05,-2.2912641725270078e-05,2.6042427634820342e-05
-4.220988557790406e-05,6.371057679643854e-05,-1.851161869126372e-05,2.5403154722880572e-05
-4.357241414254531e-05,6.657947233179584e-05,-1.7707761799101718e-05,2.6566442102193832e-05
-4.872174758929759e-05,5.583182428381406e-05,-2.1131963876541704e-05,3.018615097971633e-05
-5.25300347362645e-05,3.6229459510650486e-05,-2.4402203052886762e-05,3.38982863468118e-05
-4.8960780986817554e-05,2.872165532608051e-05,-2.676844633242581e-05,3.5960780223831534e-05
-4.2240062612108886e-05,3.841750731226057e-05,-2.99930961773498e-05,3.4268046874785796e-05
-4.3218067730776966e-05,5.052807318861596e-05,-3.3000898838508874e-05,2.9912647732999176e-05
-4.836326843360439e-05,6.439872231567279e-05,-3.438582280068658e-05,2.8983535230509005e-05
-4.894892845186405e-05,8.681392500875518e-05,-3.607405596994795e-05,3.0427097954088822e-05
-4.8611425881972536e-05,0.00011324076331220567,-3.646568802651018e-05,3.1559546187054366e-05
-4.9822814617073163e-05,0.00013017035962548107,-3.3956159313675016e-05,3.262051541241817e-05
-4.755152258439921e-05,0.00012645110837183893,-3.074330379604362e-05,3.342333002365194e-05
-4.652237839763984e-05,0.00011324537626933306,-3.1944124202709645e-05,3.6809778976021335e-05
-4.965269909007475e-05,0.00010862459021154791,-3.0500728826154955e-05,3.994908547610976e-05
-4.839340545004234e-05,9.976473666029051e-05,-2.6801439162227325e-05,3.828636181424372e-05
-4.42219570686575e-05,6.974891584832221e-05,-2.7060003048973158e-05,3.611607462516986e-05
-5.219733793637715e-05,3.29630529449787e-05,-2.3580949346069247e-05,3.870507862302475e-05
-6.962245242903009e-05,1.1156333130202256e-05,-1.9240627807448618e-05,3.924302291125059e-05
-7.837021257728338e-05,3.3050214369723108e-06,-1.714519203233067e-05,3.517370350891724e-05
-7.182730041677132e-05,-1.0647396265994757e-05,-1.9537652406143025e-05,3.2459909562021494e-05
-6.077315629227087e-05,-2.7582615075516514e-05,-2.009502350119874e-05,3.160000414936803e-05
-5.5051488743629307e-05,-3.48704525094945e-05,-1.8330580132897012e-05,3.0022554710740224e-05
-5.426557981991209e-05,-4.22746961703524e-05,-1.567594699736219e-05,2.6165444069192745e-05
-5.1669456297531724e-05,-5.308981781126931e-05,-1.5650670320610516e-05,2.5106921384576708e-05
-4.479753988562152e-05,-5.2664345275843516e-05,-1.9263527065049857e-05,2.682951162569225e-05
-3.758150705834851e-05,-3.743214620044455e-05,-2.082929313473869e-05,2.6054976842715405e-05
-3.272431422374211e-05,-1.9913914002245292e-05,-1.7923508494277485e-05,2.0121249690419063e-05
-3.2178519177250564e-05,-3.1087088245840278e-06,-1.6360767403966747e-05,1.749105467752088e-05
-3.572170317056589e-05,1.7830345313996077e-05,-1.833281021390576e-05,2.292740646225866e-05
-3.878468487528153e-05,4.165567588643171e-05,-1.7881318854051642e-05,3.116450534434989e-05
-4.0348113543586805e-05,6.290301098488271e-05,-1.599119968886953e-05,3.334804569021799e-05
-4.503985110204667e-05,7.573269977001473e-05,-1.9308361515868455e-05,2.9946344511699863e-05
-4.8817688366398215e-05,6.793470674892887e-05,-3.122374619124457e-05,2.6059882657136768e-05
-5.082252391730435e-05,3.2761563488747925e-05,-4.0801740397000685e-05,2.440269963699393e-05
-5.779575076303445e-05,-9.788394891074859e-06,-4.3586933315964416e-05,2.807685268635396e-05
-6.824824959039688e-05,-2.6618265110300854e-05,-4.149011874687858e-05,3.547195592545904e-05
-7.543005631305277e-05,-1.3673960893356707e-05,-3.771878618863411e-05,3.8712860259693116e-05
-8.480301767122e-05,9.356930604553781e-06,-3.411747456993908e-05,3.478844519122504e-05
-9.40714162425138e-05,2.3675107513554394e-05,-3.1307892641052604e-05,2.907373709604144e-05
-9.393936488777399e-05,2.3979968318599276e-05,-2.92678323603468e-05,2.6825804525287822e-05
-8.307691314257681e-05,1.8246835679747164e-05,-2.886976108129602e-05,3.0083760066190735e-05
-6.482592289103195e-05,1.1541725143615622e-05,-2.6378709662822075e-05,2.9498185540433042e-05
-4.8417248763144016e-05,1.1702210940711666e-05,-1.8068891222355887e-05,2.420462988084182e-05
-4.058207923662849e-05,1.5666309991502203e-05,-1.474293094361201e-05,1.915541542985011e-05
-4.00595527025871e-05,1.6865775251062587e-05,-2.069368383672554e-05,2.1076710254419595e-05
-3.612749060266651e-05,1.8083719623973593e-05,-2.4708684577490203e-05,2.4641049094498158e-05
-2.8873033443232998e-05,2.68377971224254e-05,-2.579394458734896e-05,2.4180129912565462e-05
-2.6527681256993674e-05,3.877497874782421e-05,-2.583075183792971e-05,1.8098546206601895e-05
-2.9657881896127947e-05,4.379866368253715e-05,-2.4843551727826707e-05,7.611048658873187e-06
-3.625538738560863e-05,3.7757825339213014e-05,-2.486985431460198e-05,-3.952528118134069e-07
-4.523771713138558e-05,2.60360448010033e-05,-2.6143523427890614e-05,-1.9090371097263414e-06
-4.80356793559622e-05,2.1681320504285395e-05,-2.7164678613189608e-05,4.647190507967025e-06
-4.1145875002257526e-05,2.823474642354995e-05,-2.8375579859130085e-05,1.0450524314364884e-05
-3.350849146954715e-05,3.567257590475492e-05,-2.8116730391047895e-05,1.213541781908134e-05
-3.5750028473557904e-05,3.0922878067940474e-05,-2.6640873329597525e-05,1.246228475793032e-05
-4.560633533401415e-05,1.3074976777716074e-05,-2.5627503418945707e-05,1.450649961043382e-05
-5.264140054350719e-05,-6.349330760713201e-06,-2.5619108782848343e-05,1.77389938471606e-05
-5.642534961225465e-05,-4.5937617869640235e-06,-2.778421730909031e-05,1.9139706637361087e-05
-5.841953679919243e-05,3.0324310500873253e-05,-3.11278308799956e-05,1.7148502593045123e-05
-5.747057366534136e-05,8.037209772737697e-05,-3.308635132270865e-05,1.5656434698030353e-05
-5.548300396185368e-05,0.00010499518975848332,-3.190727511537261e-05,1.7033573385560885e-05
-5.624235564027913e-05,8.238739974331111e-05,-2.931988456111867e-05,1.7628164641791955e-05
-5.4330921557266265e-05,3.169192495988682e-05,-2.655344178492669e-05,1.8208393157692626e-05
-4.857512249145657e-05,-4.6629297685285565e-06,-2.3383217921946198e-05,2.1176929294597358e-05
-4.4130414607934654e-05,1.156188500317512e-05,-2.1432970243040472e-05,2.27041746256873e-05
-3.600984564400278e-05,7.038392504910007e-05,-1.9908307876903564e-05,1.8967479263665155e-05
-3.0236806196626276e-05,0.0001229953923029825,-1.5354653442045674e-05,1.7416796254110523e-05
-3.195242243236862e-05,0.0001501673978054896,-1.0010580808739178e-05,2.3844011593610048e-05
-2.1620751795126125e-05,0.000149140294524841,-5.014202542952262e-06,2.9501603421522304e-05
-7.193686997197801e-06,0.0001353843108518049,-1.6727809679650818e-06,3.0524588510161266e-05
-6.477179795183474e-06,0.00012833914661314338,-7.228376261991798e-07,2.8483984351623803e-05
-2.5974079107982107e-05,0.00013697228860110044,-3.43705710292852e-06,2.5180974262184463e-05
-6.224051321623847e-05,0.00017517070227768272,-1.1353046829754021e-05,2.2558760974789038e-05
-9.198089537676424e-05,0.0002161057200282812,-2.4276234398712404e-05,2.1237559849396348e-05
-9.812894859351218e-05,0.00020225730258971453,-3.446709524723701e-05,2.398858850938268e-05
-8.035048813326284e-05,0.00011741589696612209,-3.801875573117286e-05,2.9924513000878505e-05
-5.685215728590265e-05,4.202183390589198e-06,-3.625488534453325e-05,3.3686730603221804e-05
-3.9445225411327556e-05,-0.00010473920701770112,-3.399395427550189e-05,3.162627763231285e-05
-3.109716999460943e-05,-0.0001849747495725751,-3.268637738074176e-05,2.7798936571343802e-05
-2.4130880774464458e-05,-0.00021306473354343325,-3.193125667166896e-05,2.665068495844025e-05
-1.6754480384406634e-05,-0.00018492240633349866,-3.1233248591888696e-05,2.839574335666839e-05
-1.941378286574036e-05,-0.0001311005762545392,-3.284354170318693e-05,2.9298660592758097e-05
-2.9942057153675705e-05,-8.363069355254993e-05,-3.664066025521606e-05,2.5641706088208593e-05
-4.045510650030337e-05,-4.290879223844968e-05,-3.8484373362734914e-05,1.9223200069973245e-05
-4.873865327681415e-05,3.1546398986392887e-06,-3.7335943488869816e-05,1.751540730765555e-05
-5.5082713515730575e-05,5.159650027053431e-05,-3.468670911388472e-05,2.3841013899073005e-05
-5.863250407855958e-05,8.117040124488994e-05,-3.243687388021499e-05,3.265690975240432e-05
-6.106097134761512e-05,8.365000394405797e-05,-3.088726589339785e-05,3.673998435260728e-05
-6.257013592403382e-05,7.20452080713585e-05,-2.9947013899800368e-05,3.3996166166616604e-05
-6.442049925681204e-05,5.729999975301325e-05,-2.7421290724305436e-05,2.7100424631498754e-05
-6.946555367903784e-05,3.880043004755862e-05,-2.4892573492252268e-05,2.19550038309535e-05
-7.161853136494756e-05,2.2900552721694112e-05,-2.304553891008254e-05,2.1641864805133082e-05
-6.895903788972646e-05,1.4046189789951313e-05,-2.236275940958876e-05,2.1152703993720934e-05
-6.244535325095057e-05,1.4148440641292837e-05,-1.8857566828955896e-05,1.865301965153776e-05
-5.714025974157266e-05,2.8171758458483964e-05,-1.7555294107296504e-05,2.002265682676807e-05
-6.065050183678977e-05,5.489269824465737e-05,-1.9095870811725035e-05,3.026510057679843e-05
-6.614636367885396e-05,6.933481927262619e-05,-2.443976336508058e-05,3.49782822013367e-05
-7.313393143704161e-05,5.5682143283775076e-05,-3.088400262640789e-05,2.8433394618332386e-05
-7.589003507746384e-05,2.6292220354662277e-05,-3.248503344366327e-05,2.058052814390976e-05
-7.002009806456044e-05,4.219916263537016e-06,-3.3743232052074745e-05,1.4687393559142947e-05
-6.0957769164815545e-05,-3.3001515475916676e-06,-3.0295846954686567e-05,1.3380574273469392e-05
-5.669723395840265e-05,-3.95900633520796e-06,-2.5238301532226615e-05,1.4288577403931413e-05
-5.638543007080443e-05,-3.6338983591122087e-06,-2.305036468897015e-05,1.4455570635618642e-05
-5.319548290572129e-05,-8.150658686645329e-06,-2.2025004000170156e-05,1.1677646398311481e-05
-4.721231744042598e-05,-1.4331450074678287e-05,-2.22339676838601e-05,1.0779767762869596e-05
-3.7997397157596424e-05,-1.3001964362047147e-05,-2.178038630518131e-05,1.348598198092077e-05
-2.6701301976572722e-05,-4.886100668954896e-06,-1.9563634850783274e-05,1.931083716044668e-05
-1.6006668374757282e-05,4.0367740439251065e-06,-1.6280087947961874e-05,2.274533107993193e-05
-9.455043255002238e-06,1.091774356609676e-05,-1.3091969776724e-05,2.1846186427865177e-05
-7.125385764084058e-06,1.657884058658965e-05,-1.0842565643542912e-05,2.294106343470048e-05
-1.1394704415579326e-05,2.5038047169800848e-05,-1.1575084499781951e-05,2.5960089260479435e-05
-1.9823337424895726e-05,3.6275356251280755e-05,-1.5773330233059824e-05,2.7484516976983286e-05
-2.689710345293861e-05,4.476019603316672e-05,-2.0460696759982966e-05,2.6723435439635068e-05
-2.817161293933168e-05,4.558905493468046e-05,-2.1803509298479185e-05,2.791785118461121e-05
-2.787527409964241e-05,3.849587301374413e-05,-2.372511698922608e-05,3.0115797926555388e-05
-3.225540785933845e-05,2.6852292648982257e-05,-2.711659726628568e-05,3.0165499993017875e-05
-3.849592030746862e-05,1.6176118151634e-05,-2.8281745471758768e-05,2.7341100576450117e-05
-3.9804595871828496e-05,1.3852238225808833e-05,-2.765982753771823e-05,2.420715827611275e-05
-3.7484940548893064e-05,1.753339165588841e-05,-2.7174481147085316e-05,2.4443797883577645e-05
-3.534496499923989e-05,1.577430339239072e-05,-2.8219224986969493e-05,2.7024118026020005e-05
-3.391342397662811e-05,1.1410215847718064e-05,-2.880757165257819e-05,2.5466222723480314e-05
-3.218030906282365e-05,1.5394047295558266e-05,-3.2079133234219626e-05,2.378041790507268e-05
-2.4176873921533115e-05,2.756659705482889e-05,-3.4357286494923756e-05,2.443532139295712e-05
-1.3778085303783882e-05,3.6179913877276704e-05,-3.381735587026924e-05,2.4539274818380363e-05
-1.917186818900518e-05,5.465521098813042e-05,-3.2980395189952105e-05,2.4225324523285963e-05
-3.330515028210357e-05,9.413708175998181e-05,-3.064953489229083e-05,2.1955840566079132e-05
-3.4434306144248694e-05,0.00012830457126256078,-3.1819072319194674e-05,2.0679455701611005e-05
-2.81281718343962e-05,0.00013007792585995048,-3.3883596188388765e-05,2.0310913896537386e-05
-2.9024167815805413e-05,0.00010068259143736213,-3.310765896458179e-05,2.0035577108501457e-05
-3.7147619877941906e-05,5.6524626415921375e-05,-3.152546560158953e-05,2.1071262381155975e-05
-4.411879854160361e-05,2.2448475647252053e-05,-3.1404924811795354e-05,2.256365041830577e-05
-4.883408473688178e-05,1.4269721759774256e-05,-3.450377698754892e-05,2.4549766749260016e-05
-5.162991874385625e-05,2.534908890083898e-05,-3.9524522435385734e-05,2.5588889911887236e-05
-5.763151420978829e-05,4.086240369360894e-05,-4.2345025576651096e-05,2.70897271548165e-05
-6.801856943638995e-05,4.303333116695285e-05,-4.121643360122107e-05,2.613545802887529e-05
-7.823692430974916e-05,2.676314761629328e-05,-4.0547984099248424e-05,2.3579708795296028e-05
-7.876488962210715e-05,-2.565355998740415e-06,-4.1995237552328035e-05,2.153959394490812e-05
-7.050709973555058e-05,-2.6678430003812537e-05,-4.166740836808458e-05,1.9312905351398513e-05
-6.584737275261432e-05,-1.85667031473713e-05,-3.7711764889536425e-05,1.5872436051722616e-05
-6.910241063451394e-05,2.8376876798574813e-05,-3.5158314858563244e-05,1.2727383364108391e-05
-7.233775249915197e-05,7.842296326998621e-05,-3.4416993003105745e-05,1.3674602996616159e-05
-7.071175787132233e-05,9.074034460354596e-05,-3.2793323043733835e-05,1.7651296730036847e-05
-7.311328954529017e-05,6.667878187727183e-05,-3.174005541950464e-05,1.9602319298428483e-05
-8.266321674454957e-05,4.4023759983247146e-05,-3.071046739933081e-05,1.8214970623375848e-05
-9.200024214806035e-05,5.003696060157381e-05,-2.7263937226962298e-05,1.8879756680689752e-05
-9.31572139961645e-05,7.317714334931225e-05,-2.324551678611897e-05,2.196270361309871e-05
-8.553186489734799e-05,8.37674451759085e-05,-2.1818494133185595e-05,2.3778844479238614e-05
-7.411284605041146e-05,7.407653174595907e-05,-2.21315749513451e-05,2.1383169951150194e-05
-6.723262049490586e-05,6.63472237647511e-05,-2.332787335035391e-05,2.210165257565677e-05
-6.953554839128628e-05,8.011137833818793e-05,-2.5576910047675483e-05,2.3647831767448224e-05
-7.590911991428584e-05,0.00010383980406913906,-2.573047277110163e-05,2.467168633302208e-05
-7.87239259807393e-05,0.00011011558672180399,-2.2288966647465713e-05,2.598517676233314e-05
-7.930687570478767e-05,9.353552741231397e-05,-1.9535642422852106e-05,2.2978985725785606e-05
-8.52815865073353e-05,6.874609971418977e-05,-1.8435262973071076e-05,1.8247113985125907e-05
-8.67861817823723e-05,4.6090262912912294e-05,-1.783180960046593e-05,1.69878730957862e-05
-7.73863066569902e-05,2.662209044501651e-05,-1.7615668184589595e-05,1.896947287605144e-05
-6.667584966635332e-05,9.992758350563236e-06,-1.720978252706118e-05,1.757225072651636e-05
-5.846997009939514e-05,-3.6018298033013707e-06,-1.905334102048073e-05,1.3692843822354916e-05
-5.5398653785232455e-05,-1.1721315786417108e-05,-2.2386557247955352e-05,1.2209860869916156e-05
-5.209049777477048e-05,-1.4508505955745932e-05,-2.4336788555956446e-05,1.4027691577211954e-05
-4.663973595597781e-05,-1.677541331446264e-05,-2.454670720908325e-05,1.6998670616885647e-05
-3.8533467886736616e-05,-2.6372077627456747e-05,-2.4889553969842382e-05,2.0645418771891855e-05
-3.110402394668199e-05,-4.017870014649816e-05,-2.6552403141977265e-05,2.163733370252885e-05
-2.6710782549344003e-05,-4.5089276682119817e-05,-2.5320437998743728e-05,2.0775090888491832e-05
-2.1892457880312577e-05,-3.179135455866344e-05,-1.9076314856647514e-05,2.27429554797709e-05
-1.9488856196403503e-05,-4.6844943426549435e-06,-1.2828122635255568e-05,2.8473825295805e-05
-2.1112426111358218e-05,2.5280305635533296e-05,-1.1826098671008367e-05,3.593397559598088e-05
-2.3875803890405223e-05,5.0655526138143614e-05,-1.431020336895017e-05,4.027556497021578e-05
-2.4938888600445352e-05,7.173154881456867e-05,-1.757859718054533e-05,3.979180837632157e-05
-2.6395247914479114e-05,8.887083822628483e-05,-2.223485535068903e-05,3.632204970926978e-05
-2.8219881642144173e-05,9.415569365955889e-05,-2.6068910301546566e-05,3.361557173775509e-05
-2.91328124149004e-05,8.94324402906932e-05,-2.7367477741790935e-05,3.149893382214941e-05
-3.27943816955667e-05,9.583923383615911e-05,-2.706777559069451e-05,2.740848867688328e-05
-3.4007098292931914e-05,0.00010551164450589567,-2.4558799850638025e-05,2.314742778253276e-05
-3.0075418180786073e-05,8.442613034276292e-05,-2.2273130525718443e-05,2.3494638298870996e-05
-2.9995529985171743e-05,3.890219159075059e-05,-1.9476441593724303e-05,2.7850843252963386e-05
-3.2608204492134973e-05,2.4898831725295167e-06,-1.7458582078688778e-05,3.320034738862887e-05
-3.5174802178516984e-05,-1.368608445773134e-05,-1.9112661902909167e-05,3.5884986573364586e-05
-3.8029957067919895e-05,-2.125469472957775e-05,-1.987986070162151e-05,3.121416375506669e-05
-4.2186038626823574e-05,-2.688208951440174e-05,-1.995426464418415e-05,2.4022294383030385e-05
-4.660403646994382e-05,-2.9915754566900432e-05,-2.001375651161652e-05,2.2983718736213632e-05
-4.732637171400711e-05,-3.18542261084076e-05,-2.170705010939855e-05,2.4192104319809005e-05
-4.452722714631818e-05,-2.746915015450213e-05,-2.7570840757107362e-05,2.1458810806507245e-05
-4.503697346081026e-05,-2.6669581529858988e-06,-3.204845779691823e-05,2.0256216885172762e-05
-4.920931314700283e-05,2.7553262043511495e-05,-3.19064492941834e-05,2.2485925001092255e-05
-5.119664638186805e-05,4.155653732595965e-05,-2.971771937154699e-05,2.6394431188236922e-05
-4.8653946578269824e-05,3.328597449581139e-05,-2.956360185635276e-05,2.9816917958669364e-05
-4.3674222979461774e-05,1.3987916645419318e-05,-2.9749404347967356e-05,3.0039918783586472e-05
-4.1337490984005854e-05,-3.498824071357376e-06,-2.977828262373805e-05,2.790104554151185e-05
-4.166968210483901e-05,-1.3219289940025192e-05,-3.222410305170342e-05,2.6723955670604482e-05
-4.371244358480908e-05,-1.388848431815859e-05,-3.398386616026983e-05,2.6368203180027194e-05
-4.822983100893907e-05,-6.283680249907775e-06,-3.123920760117471e-05,2.1787405785289593e-05
-5.350405990611762e-05,1.0404446584288962e-05,-2.5607288989704102e-05,1.6446503650513478e-05
-5.400473310146481e-05,3.382605063961819e-05,-2.101077734550927e-05,1.6490928828716278e-05
-4.7462661314057186e-05,5.972781582386233e-05,-1.8520937373978086e-05,1.918078305607196e-05
-3.984309296356514e-05,7.586550054838881e-05,-1.9011557014891878e-05,2.0557521565933712e-05
-3.936536450055428e-05,7.281182479346171e-05,-2.1367950466810726e-05,2.1281261069816537e-05
-4.2769257561303675e-05,5.683398921974003e-05,-2.3132590285968035e-05,2.2401349269784987e-05
-4.3659587390720844e-05,4.9825015594251454e-05,-2.276356281072367e-05,2.6020139557658695e-05
-4.257705950294621e-05,6.125109939603135e-05,-1.9690671251737513e-05,2.9618646294693463e-05
-4.5199096348369494e-05,7.576200732728466e-05,-1.5387135135824792e-05,2.8819204089813866e-05
-4.884415466221981e-05,8.345088281203061e-05,-1.5177496607066132e-05,2.860775202861987e-05
-4.9117530579678714e-05,9.240650979336351e-05,-1.8825616280082613e-05,2.93741741188569e-05
-5.119078923598863e-05,9.625873644836247e-05,-1.995063757931348e-05,2.7688092814059928e-05
-5.3040716011309996e-05,0.00010958092752844095,-1.7268383089685813e-05,2.691228837647941e-05
-5.426583447842859e-05,0.00013430829858407378,-1.633882311580237e-05,2.865177157218568e-05
-5.829863584949635e-05,0.00013413354463409632,-2.196207788074389e-05,2.9408240152406506e-05
-6.392781506292522e-05,8.826595149002969e-05,-3.041800118808169e-05,2.6704858100856654e-05
-6.4055850089062e-05,1.4888749319652561e-05,-3.189001654391177e-05,2.3942076950334013e-05
-5.77544305997435e-05,-3.979239409090951e-05,-2.7117703211843036e-05,2.501889321138151e-05
-4.773866385221481e-05,-5.6712298828642815e-05,-2.407650936220307e-05,2.961711652460508e-05
-3.900182491634041e-05,-5.9632588090607896e-05,-2.5606088456697762e-05,3.412129808566533e-05
-3.804428706644103e-05,-7.149793964345008e-05,-2.9484814149327576e-05,3.345907316543162e-05
-4.7550627641612664e-05,-7.327060302486643e-05,-3.3423439163016155e-05,2.6298313969164155e-05
-6.409433262888342e-05,-4.7026598622323945e-05,-3.740607280633412e-05,1.8139866369892843e-05
-8.069943578448147e-05,-2.0883460820186883e-05,-3.849184940918349e-05,1.2304059055168182e-05
-9.1413407062646e-05,-2.1327519789338112e-05,-3.584484875318594e-05,1.1055692084482871e-05
-9.288339788326994e-05,-3.377453322173096e-05,-3.224613465135917e-05,1.5953908587107435e-05
-8.65744223119691e-05,-3.6533241654979065e-05,-3.1055245926836506e-05,2.4875998860807158e-05
-7.781664317008108e-05,-2.8173411919851787e-05,-3.298146475572139e-05,3.1722251151222736e-05
-7.071208528941497e-05,-1.2795186194125563e-05,-3.49074398400262e-05,3.2771044061519206e-05
-6.555680010933429e-05,6.2427270677289926e-06,-3.326139994896948e-05,3.070895763812587e-05
-6.368883623508736e-05,2.1822806957061402e-05,-3.151342025375925e-05,2.78715742751956e-05
-6.410988862626255e-05,3.046031270059757e-05,-3.10176910716109e-05,2.724263868003618e-05
-6.426824256777763e-05,3.762854976230301e-05,-2.7857271561515518e-05,2.7597534426604398e-05
-6.130676774773747e-05,4.680929851019755e-05,-2.2794876713305712e-05,2.567056435509585e-05
-5.967363540548831e-05,5.359439455787651e-05,-1.9888821043423377e-05,2.0751103875227273e-05
-5.44807335245423e-05,5.327516919351183e-05,-2.0616964320652187e-05,1.605082616151776e-05
-4.339171573519707e-05,4.597941369866021e-05,-2.379069155722391e-05,1.6162679457920603e-05
-3.3366563002346084e-05,2.49427084781928e-05,-2.420408054604195e-05,2.1865207600058056e-05
-1.5572735719615594e-05,-7.576185453217477e-06,-2.0207684428896755e-05,2.8273783755139448e-05
-2.050340071946266e-06,-3.198942431481555e-05,-1.8543698388384655e-05,2.834989209077321e-05
-7.953402018756606e-06,-3.8524689443875104e-05,-2.054069409496151e-05,2.1651432689395733e-05
-2.0358662368380465e-05,-2.501983180991374e-05,-2.3564933144371025e-05,1.6533576854271814e-05
-2.6939618692267686e-05,1.2637204918064526e-06,-2.822375790856313e-05,1.390294619341148e-05
-2.7076246624346823e-05,1.4975320482335519e-05,-3.0669969419250265e-05,1.0891832971537951e-05
-2.47948137257481e-05,5.299804797687102e-06,-2.7756785129895434e-05,9.82368965196656e-06
-2.4249671696452424e-05,5.925397090322804e-06,-2.770759783743415e-05,1.15685943455901e-05
-2.8357493647490628e-05,3.142170680803247e-05,-3.229107824154198e-05,1.5934610928525217e-05
-3.354677028255537e-05,7.02713878126815e-05,-3.555776856956072e-05,2.0926610886817798e-05
-4.057545811519958e-05,0.00010683685104595497,-3.484868648229167e-05,2.405747363809496e-05
-4.467526377993636e-05,0.00012666797556448728,-3.518386074574664e-05,2.3874774342402816e-05
-4.99094276165124e-05,0.00013102944649290293,-3.6610574170481414e-05,2.2527632609126158e-05
-6.10165334364865e-05,0.00012968172086402774,-3.573629874153994e-05,2.1748415747424588e-05
-7.504391396651044e-05,0.00012115829304093495,-3.3490399800939485e-05,1.9626508219516836e-05
-8.299543696921319e-05,9.734930063132197e-05,-2.9818103939760476e-05,1.487829922552919e-05
-7.897299656178802e-05,7.489342533517629e-05,-2.488418249413371e-05,1.1626053492364008e-05
-6.903747271280736e-05,7.956473564263433e-05,-2.0154908270342276e-05,1.481579147366574e-05
-6.094079799368046e-05,0.00010447497334098443,-1.8700186046771705e-05,1.793774754332844e-05
-5.826196138514206e-05,0.00011826297122752294,-2.1069065041956492e-05,1.5777015505591407e-05
-5.5629996495554224e-05,0.00010906983516179025,-2.547320764278993e-05,1.2972453077964019e-05
-5.163811511010863e-05,8.721464109839872e-05,-2.7601985493674874e-05,1.3625670362671372e-05
-4.860652188654058e-05,6.863575254101306e-05,-2.681961632333696e-05,1.793945921235718e-05
-4.438354153535329e-05,5.7492597989039496e-05,-2.7337322535458952e-05,2.428649713692721e-05
-4.188139064353891e-05,5.4423238907475024e-05,-2.818801294779405e-05,3.554806608008221e-05
-4.921169966110028e-05,5.872040492249653e-05,-2.6027384592453018e-05,4.683904262492433e-05
-5.4720563639421016e-05,5.8283530961489305e-05,-2.310941636096686e-05,4.804589116247371e-05
-5.251317998045124e-05,4.64400727651082e-05,-2.2868134692544118e-05,4.2923980799969286e-05
-4.9326317821396515e-05,3.0894781957613304e-05,-2.3394963136524893e-05,3.638114139903337e-05
-5.228774534771219e-05,1.2866052202298306e-05,-2.220978967670817e-05,3.276243296568282e-05
-5.992978185531683e-05,-4.451430413610069e-06,-2.3678458092035726e-05,3.1952924473444e-05
-6.794784712838009e-05,-1.0976166777254548e-05,-2.781158036668785e-05,2.7861440685228445e-05
-6.870728975627571e-05,-9.57807969825808e-06,-2.9898643333581276e-05,2.1613435819745064e-05
-5.7245320931542665e-05,-2.3841997972340323e-05,-2.8023367121932097e-05,1.8360689864493906e-05
-4.309329960960895e-05,-5.558375778491609e-05,-2.73644836852327e-05,1.9682689526234753e-05
-3.3302640076726675e-05,-7.863349310355261e-05,-2.8154481697129086e-05,2.1808558813063428e-05
-2.941908678621985e-05,-7.115866173990071e-05,-2.8510321499197744e-05,2.344878521398641e-05
-2.9919932785560377e-05,-3.5746601497521624e-05,-2.7036259780288674e-05,2.2099075067671947e-05
-3.184378510923125e-05,4.647693003789755e-06,-2.3995793526410125e-05,1.91756735148374e-05
-3.543620550772175e-05,3.26298140862491e-05,-2.1218866095296107e-05,1.885235178633593e-05
-4.133024413022213e-05,5.6356191635131836e-05,-1.9283972505945712e-05,2.2178037397679873e-05
-4.882118446403183e-05,8.879545930540189e-05,-1.9315722965984605e-05,2.6413454179419205e-05
-5.8983161579817533e-05,0.00011353988520568237,-1.9410390450502746e-05,2.8242075131856836e-05
-7.206641021184623e-05,0.00010897641914198175,-2.0909428712911904e-05,2.6454687031218782e-05
-8.476867515128106e-05,7.882901263656095e-05,-2.4922766897361726e-05,2.2441930923378095e-05
-8.920610707718879e-05,4.176774018560536e-05,-2.951247188320849e-05,1.951405283762142e-05
-8.155925752362236e-05,7.337328042922309e-06,-3.337658927193843e-05,1.7656513591646217e-05
-6.761349504813552e-05,-2.2535352400154807e-05,-3.729489981196821e-05,1.894019078463316e-05
-5.448887895909138e-05,-3.8857015169924125e-05,-3.778858081204817e-05,2.499425499991048e-05
-4.8714053264120594e-05,-2.576695624156855e-05,-3.480580198811367e-05,3.088774610660039e-05
-4.9507747462484986e-05,6.668219612038229e-06,-3.178367478540167e-05,3.4329379559494555e-05
-5.083905125502497e-05,3.912881584255956e-05,-2.9949516829219647e-05,3.4837095881812274e-05
-4.712694862973876e-05,6.185972597450018e-05,-2.8571394068421796e-05,3.0923325539333746e-05
-4.105676998733543e-05,7.250346970977262e-05,-2.6775767764775082e-05,2.4486236725351773e-05
-4.417807576828636e-05,6.761279655620456e-05,-2.6861291189561598e-05,1.9964438251918182e-05
-5.5362739658448845e-05,5.422250978881493e-05,-2.7971200324827805e-05,1.7953514543478377e-05
-6.179160118335858e-05,4.235955566400662e-05,-2.6711091777542606e-05,1.79794842551928e-05
-5.7216253480874e-05,3.242561433580704e-05,-2.4538223442505114e-05,2.1688398192054592e-05
-4.930402428726666e-05,3.3373242331435904e-05,-2.294260593771469e-05,2.3294505808735266e-05
-4.509333666646853e-05,3.742777698789723e-05,-2.0667717762989923e-05,2.2806634660810232e-05
-4.8601996240904555e-05,2.6215198886347935e-05,-1.750946648826357e-05,2.4159271561075002e-05
-5.011245593777858e-05,2.6672294097807026e-06,-1.8863995137508027e-05,2.675211180758197e-05
-4.372475450509228e-05,-1.4618338354921434e-05,-2.350970135012176e-05,2.5210309104295447e-05
-3.480105442577042e-05,-1.221483853441896e-05,-2.882109401980415e-05,2.156018490495626e-05
-2.800558286253363e-05,9.877535376290325e-06,-3.1126899557420984e-05,2.188475446018856e-05
-2.5925242880475707e-05,4.166314465692267e-05,-2.9045684641459957e-05,2.5413119146833196e-05
-2.4289063730975613e-05,6.890917575219646e-05,-2.6963558411807753e-05,2.5619345251470804e-05
-1.9397723008296452e-05,8.136275573633611e-05,-2.7142701583215967e-05,2.0392546502989717e-05
-1.5071293091750704e-05,7.439983892254531e-05,-2.7603873604675755e-05,1.7333142750430852e-05
-1.78430800588103e-05,5.138223059475422e-05,-2.593249337223824e-05,1.9939494450227357e-05
-2.3881622837507166e-05,2.721344026213046e-05,-2.5230920073227026e-05,2.3246802811627276e-05
-2.8048714739270508e-05,2.0369559933897108e-05,-2.6022597012342885e-05,2.3211205188999884e-05
-2.8198946893098764e-05,3.058484799112193e-05,-2.630720700835809e-05,2.3233253159560263e-05
-2.4371025574509986e-05,3.071598621318117e-05,-2.379657598794438e-05,2.5466755687375553e-05
-2.3664541004109196e-05,6.063173259462928e-06,-2.074677286145743e-05,2.7231380954617634e-05
-3.127383388346061e-05,-2.628638867463451e-05,-1.9686794985318556e-05,2.5546116376062855e-05
-3.7486064684344456e-05,-4.844221257371828e-05,-2.1245576135697775e-05,2.339982529520057e-05
-3.977863525506109e-05,-4.927051122649573e-05,-2.2972439182922244e-05,2.395375122432597e-05
-4.3038751755375415e-05,-2.7421603590482846e-05,-2.4932092856033705e-05,2.7037962354370393e-05
-4.3530631955945864e-05,3.2579380331299035e-06,-2.4761848180787638e-05,2.8260146791581064e-05
-4.7136702050920576e-05,3.794149597524665e-05,-2.2854668713989668e-05,2.3838070774218068e-05
-5.758295810665004e-05,7.144206028897315e-05,-2.0313180357334204e-05,1.6510302884853445e-05
-6.839046545792371e-05,9.726483403937891e-05,-2.0553723516059108e-05,1.0901560017373413e-05
-7.515474135288969e-05,0.0001007931714411825,-2.7163952836417593e-05,5.706914635084104e-06
-8.123837324092165e-05,8.897070802049711e-05,-3.378239125595428e-05,5.165127731743269e-06
-8.081907435553148e-05,8.604230242781341e-05,-3.69030240108259e-05,1.1870478374476079e-05
-6.869868957437575e-05,8.461029210593551e-05,-3.765176370507106e-05,1.779497142706532e-05
-6.030109216226265e-05,7.763930625515059e-05,-3.737911902135238e-05,1.682683068793267e-05
-5.7739576732274145e-05,7.233926589833573e-05,-3.4790660720318556e-05,1.3799977750750259e-05
-5.8385503507452086e-05,7.651385385543108e-05,-2.987551488331519e-05,1.5863904991419986e-05
-5.8748864830704406e-05,7.687746256124228e-05,-2.305692214576993e-05,2.220951864728704e-05
-5.9569531003944576e-05,5.83877663302701e-05,-1.8903114323620684e-05,2.5975652533816174e-05
-6.273215694818646e-05,2.2400157831725664e-05,-1.879389674286358e-05,2.0957802917109802e-05
-6.624851084779948e-05,-1.0304698662366718e-05,-1.9742470612982288e-05,1.5081982382980641e-05
-6.608019612031057e-05,-2.30627538257977e-05,-1.9199109374312684e-05,1.544786755403038e-05
-6.0759262851206586e-05,-1.129398060584208e-05,-1.780258389771916e-05,1.6539368516532704e-05
-5.64871916139964e-05,1.5789377357577905e-05,-1.8956789062940516e-05,1.4252540495363064e-05
-5.9281712310621515e-05,3.847163316095248e-05,-2.1242078219074756e-05,1.308369064645376e-05
-6.84942351654172e-05,4.832159902434796e-05,-2.1704434402636252e-05,1.5757650544401258e-05
-7.125613046810031e-05,4.6755405492149293e-05,-2.0013399989693426e-05,1.9456892914604396e-05
-6.130672409199178e-05,3.448224742896855e-05,-1.5683168385294266e-05,2.033048076555133e-05
-4.6901808673283085e-05,1.0832052794285119e-05,-1.0875638508878183e-05,2.1248366465442814e-05
-3.891390224453062e-05,-1.127987343352288e-05,-1.325924040429527e-05,2.5943423679564148e-05
-3.547629967215471e-05,-1.926588811329566e-05,-2.33087321248604e-05,3.244242907385342e-05
-3.6369459849083796e-05,-1.5522156900260597e-05,-3.087706500082277e-05,3.8827933167340234e-05
-4.231565253576264e-05,-5.666587640007492e-06,-3.174073572154157e-05,3.9489481423515826e-05
-4.72726569569204e-05,3.6115245620749192e-06,-3.0143291951389983e-05,3.660352376755327e-05
-4.738707502838224e-05,1.1834632687168778e-06,-2.5349923816975206e-05,3.427864794502966e-05
-4.756225462188013e-05,-8.6169002315728e-06,-1.666190473770257e-05,3.082960029132664e-05
-4.402780541568063e-05,-1.8613982319948263e-05,-1.023822642309824e-05,2.8298783945501782e-05
-4.165065911365673e-05,-2.3943121050251648e-05,-1.3035448318987619e-05,2.7698039048118517e-05
-4.820379035663791e-05,-1.990038617805112e-05,-1.7709218809613958e-05,2.9705917768296786e-05
-5.622835305985063e-05,-2.1183454634865484e-07,-1.9859899111906998e-05,3.077500514336862e-05
-5.8718491345644e-05,2.6304303901270032e-05,-1.9966480977018364e-05,2.8834989279857837e-05
-5.156395855010487e-05,4.6847806515870616e-05,-1.5227990843413863e-05,2.6437774067744613e-05
-4.09905806009192e-05,5.9898629842791706e-05,-8.88301383383805e-06,2.6261177481501363e-05
-3.482580359559506e-05,7.102397648850456e-05,-5.842053269589087e-06,2.7126352506456897e-05
-3.43326864822302e-05,8.388201968045905e-05,-9.610948836780153e-06,2.6078590963152237e-05
-3.372408536961302e-05,9.689139551483095e-05,-1.5044106476125307e-05,2.342859261261765e-05
-3.4758613765006885e-05,9.980223694583401e-05,-1.7758049580152147e-05,2.2949965568841435e-05
-4.2821531678782776e-05,8.398041245527565e-05,-2.0254639821359888e-05,2.504411168047227e-05
-5.675636566593312e-05,6.002630470902659e-05,-2.5506358724669553e-05,2.703366772038862e-05
-7.244959124363959e-05,4.911748328595422e-05,-3.207952613593079e-05,2.686245170480106e-05
-8.486764272674918e-05,6.5856751461979e-05,-3.654860847746022e-05,2.4521075829397887e-05
-9.104448690777645e-05,9.026352199725807e-05,-3.813713192357682e-05,2.2988773707766086e-05
-8.554159285267815e-05,8.224983321269974e-05,-3.877473864122294e-05,2.238873094029259e-05
-6.810028571635485e-05,3.793673386098817e-05,-3.82369507860858e-05,2.193029831687454e-05
-4.799136149813421e-05,-5.721303296013502e-06,-3.478424696368165e-05,2.1334824850782752e-05
-3.4158143535023555e-05,-2.2066238670959137e-05,-3.1586580007569864e-05,2.263488386233803e-05
-3.279996235505678e-05,-1.4176838703860994e-05,-2.9703689506277442e-05,2.7406249500927515e-05
-3.9955270040081814e-05,-7.777122164043249e-07,-2.6035195332951844e-05,3.400840068934485e-05
-4.3238007492618635e-05,1.2868672456534114e-05,-2.2846981664770283e-05,3.573847789084539e-05
-3.9508046029368415e-05,3.071426908718422e-05,-2.2052248823456466e-05,3.1889259844319895e-05
-3.53439427271951e-05,4.786104545928538e-05,-2.4739894797676243e-05,2.7523106837179512e-05
-4.377265213406645e-05,6.230359576875344e-05,-2.6411249564262107e-05,2.6338382667745464e-05
-5.548394619836472e-05,7.746784831397235e-05,-2.2676274966215715e-05,3.054077023989521e-05
-5.403589966590516e-05,9.019518620334566e-05,-1.7340238628094085e-05,3.348885729792528e-05
-4.994697155780159e-05,0.0001122544999816455,-1.6114454410853796e-05,3.0657749448437244e-05
-5.4177024139789864e-05,0.00014192980597727,-2.1864520022063516e-05,2.375219264649786e-05
-5.994378079776652e-05,0.00015525078924838454,-2.923578540503513e-05,1.7856475096778013e-05
-5.859180964762345e-05,0.00012656429316848516,-3.081014801864512e-05,1.5680891010561027e-05
-5.1292481657583266e-05,6.964927888475358e-05,-2.63204474322265e-05,1.4568091501132585e-05
-3.7299018003977835e-05,2.2485843146569096e-05,-2.32139318541158e-05,1.4287240446719807e-05
-2.188922735513188e-05,-2.9023003662587143e-06,-2.5924831788870506e-05,1.557644827698823e-05
-1.3578420293924864e-05,-3.7195695767877623e-06,-3.199295315425843e-05,2.1614043362205848e-05
-1.4233150977815967e-05,1.8340311726205982e-05,-3.558021126082167e-05,2.8852266041212715e-05
-1.7980923075811006e-05,4.900457861367613e-05,-3.662366725620814e-05,3.300106982351281e-05
-2.1695821487810463e-05,6.624693924095482e-05,-3.3745971450116485e-05,3.3519219869049266e-05
-2.1760326490039006e-05,6.999164907028899e-05,-2.8457672669901513e-05,3.1718725949758664e-05
-2.292312819918152e-05,7.311887020478025e-05,-2.5124114472419024e-05,3.059767550439574e-05
-3.452458622632548e-05,8.849850564729422e-05,-2.3491928004659712e-05,3.2841195206856355e-05
-5.257640441413969e-05,0.00011115864617750049,-2.3395636162604205e-05,3.781086707022041e-05
-6.839000707259402e-05,0.00011455266940174624,-2.5922337954398245e-05,3.804311927524395e-05
-7.728793571004644e-05,6.719118391629308e-05,-3.172509605064988e-05,3.094454950769432e-05
-7.386189099634066e-05,-3.584090154618025e-05,-3.875757465721108e-05,1.996185710595455e-05
-6.408236367860809e-05,-0.00014755825395695865,-4.360192542662844e-05,1.3191139260015916e-05
-5.745995804318227e-05,-0.0001959932124009356,-4.495196481002495e-05,1.3480476809490938e-05
-5.0662903959164396e-05,-0.00016210501780733466,-4.308156348997727e-05,1.6503381630172953e-05
-5.15532010467723e-05,-9.432536171516404e-05,-3.692209429573268e-05,2.0521691112662666e-05
-5.8587436797097325e-05,-4.5540728024207056e-05,-2.925523767771665e-05,2.1411629859358072e-05
-5.8575267757987604e-05,-2.7983620384475216e-05,-2.573465826571919e-05,2.1235686290310696e-05
-5.362943920772523e-05,-1.995126876863651e-05,-2.7952855816693045e-05,2.4854352886904962e-05
-5.06717806274537e-05,-1.3473690160026308e-05,-2.8410482627805322e-05,2.6835346943698823e-05
-4.833587445318699e-05,-7.1281788223132025e-06,-2.748590304690879e-05,2.5482950150035322e-05
-4.432201967574656e-05,-2.7611747555056354e-06,-2.8887841835967265e-05,2.5551707949489355e-05
-3.904944605892524e-05,-1.2224667216287344e-06,-2.880127249227371e-05,2.7492729714140296e-05
-3.683660543174483e-05,8.003192306205165e-06,-3.0747723940294236e-05,2.7416010198066942e-05
-3.6856523365713656e-05,1.8311102394363843e-05,-3.5143639252055436e-05,2.5335384634672664e-05
-3.7972229620208964e-05,2.514547850296367e-05,-3.5179516999050975e-05,2.3121385311242193e-05
-4.113848626730032e-05,2.698719981708564e-05,-3.1662908440921456e-05,2.2068037651479244e-05
-4.5585362386191264e-05,2.5349667339469306e-05,-2.7836613298859447e-05,1.9705663362401538e-05
-4.958252975484356e-05,2.5158962671412155e-05,-2.542160109442193e-05,1.6561903976253234e-05
-5.305603190208785e-05,2.7441397833172232e-05,-2.3626373149454594e-05,1.7692913388600573e-05
-5.4804062529001385e-05,2.9730714231845923e-05,-2.2980333596933633e-05,2.2064154109102674e-05
-5.238673111307435e-05,2.7267584300716408e-05,-2.451715772622265e-05,2.4209792172769085e-05
-4.899091072729789e-05,2.588364077382721e-05,-2.7668131224345416e-05,2.2453161363955587e-05
-4.705369065050036e-05,2.8410087907104753e-05,-3.087854202021845e-05,2.0659490473917685e-05
-4.775259367306717e-05,3.187990660080686e-05,-3.2036190532380715e-05,2.1574203856289387e-05
-5.050066101830453e-05,3.126878073089756e-05,-3.047390782739967e-05,2.376906923018396e-05
-5.239858364802785e-05,2.8992742954869755e-05,-2.8178868888062425e-05,2.4728544303798117e-05
-5.20266912644729e-05,2.6140636691707186e-05,-2.673696872079745e-05,2.328682239749469e-05
-5.212739415583201e-05,2.4370025130338036e-05,-2.5182815079460852e-05,2.1210365957813337e-05
-5.133751983521506e-05,2.4199980543926358e-05,-2.505788506823592e-05,2.0777863028342836e-05
-5.305249214870855e-05,2.6121007977053523e-05,-2.6737279767985456e-05,1.9604296539910138e-05
-5.720688932342455e-05,3.104553252342157e-05,-3.0246061214711517e-05,1.9093879018328153e-05
-5.668087396770716e-05,3.69299050362315e-05,-3.274634218541905e-05,1.9967947082477622e-05
-5.4418960644397885e-05,4.135919516556896e-05,-3.154451405862346e-05,2.1032701624790207e-05
-5.3108240535948426e-05,4.4346270442474633e-05,-2.875428799598012e-05,2.2179576262715273e-05
-5.269212124403566e-05,4.663225990952924e-05,-2.835081977536902e-05,2.4151027901098132e-05
-5.437725121737458e-05,5.166093251318671e-05,-3.2003503292798996e-05,2.480141665728297e-05
-5.0943155656568706e-05,6.161171040730551e-05,-3.4488908568164334e-05,2.2137097403174266e-05
-4.465317033464089e-05,7.102216477505863e-05,-3.424693568376824e-05,2.0462803149712272e-05
-4.915564204566181e-05,7.478882616851479e-05,-3.1094125006347895e-05,1.981979949050583e-05
-5.907353988732211e-05,7.416230801027268e-05,-2.7616386432782747e-05,1.8663957234821282e-05
-6.586980452993885e-05,6.986239895923063e-05,-2.7319258151692338e-05,1.64288685482461e-05
-6.461056909756735e-05,6.0348229453666136e-05,-2.6451964004081674e-05,1.5307003195630386e-05
-5.7371285947738215e-05,5.23035014339257e-05,-2.5198687580996193e-05,1.7746368030202575e-05
-4.991715104551986e-05,4.644399814424105e-05,-2.308054899913259e-05,2.021225736825727e-05
-4.5728975237580016e-05,4.159014861215837e-05,-2.1959413061267696e-05,1.9298553525004536e-05
-4.818700108444318e-05,3.2852578442543745e-05,-2.285537811985705e-05,1.9332768715685233e-05
-5.351403888198547e-05,1.88301237358246e-05,-2.4160577595466748e-05,2.064013824565336e-05
-5.6349861552007496e-05,5.270725523587316e-06,-2.242811387986876e-05,2.1125264538568445e-05
-5.4577012633671984e-05,5.317187969922088e-07,-1.8576120055513456e-05,2.1456411559483968e-05
-5.362426600186154e-05,4.436783456185367e-06,-1.7720676623866893e-05,2.2922029529581778e-05
-5.440801760414615e-05,8.666118446853943e-06,-2.0667930584750138e-05,2.6918158255284652e-05
-5.424811752163805e-05,5.489003797265468e-06,-2.3550395781057887e-05,3.164277950418182e-05
-5.23058588441927e-05,-3.6507535696728155e-06,-2.1526881027966738e-05,3.337070666020736e-05
-5.0470302085159346e-05,-9.786732334760018e-06,-1.7218189896084368e-05,3.128378375549801e-05
-4.9741927796276286e-05,-7.840128091629595e-06,-1.610988510947209e-05,2.8653706976911053e-05
-4.735932816402055e-05,-1.0339144864701666e-06,-1.567539948155172e-05,2.6371455533080734e-05
-4.360979801276699e-05,6.669088634225773e-06,-1.4588021258532535e-05,2.585779111541342e-05
-4.3308744352543727e-05,2.5602505047572777e-05,-1.7343470972264186e-05,2.3207752747111954e-05
-4.124995393794961e-05,6.777256930945441e-05,-1.8835020455298945e-05,2.0196073819533922e-05
-4.1067632992053404e-05,0.00011690198152791709,-1.801542930479627e-05,2.1146815925021656e-05
-4.646985689760186e-05,0.00013452568964567035,-1.6661864719935693e-05,2.2404605260817334e-05
-5.1997601985931396e-05,0.0001139323940151371,-1.6558053175685927e-05,2.370893707848154e-05
-5.6065196986310184e-05,8.162454469129443e-05,-1.973863436433021e-05,2.6711475584306754e-05
-5.8603622164810076e-05,6.509482773253694e-05,-2.1694395400118083e-05,3.012943489011377e-05
-5.8064437325811014e-05,6.959774327697232e-05,-2.0270172171876766e-05,3.066351200686768e-05
-5.283199789118953e-05,8.621059532742947e-05,-1.9392784452065825e-05,2.7511441658134572e-05
-5.113792940392159e-05,9.930565283866599e-05,-1.9815550331259146e-05,2.440417665638961e-05
-4.92403341922909e-05,8.654363045934588e-05,-2.0634919565054588e-05,2.2945701857679524e-05
-4.649189577321522e-05,5.10618592670653e-05,-2.0432271412573755e-05,2.3259452063939534e-05
-4.3999243644066155e-05,2.0092471459065564e-05,-1.8820159311871976e-05,2.7809188395622186e-05
-4.5581709855468944e-05,9.132249033427797e-06,-1.8163649656344205e-05,3.3253578294534236e-05
-4.8593028623145074e-05,9.65331491897814e-06,-1.698544656392187e-05,3.436641054577194e-05
-4.497460031416267e-05,4.668686415243428e-06,-1.4776373973290902e-05,3.2666306651663035e-05
-4.127895226702094e-05,-4.210629413137212e-06,-1.3989019862492569e-05,3.190666757291183e-05
-4.5473454520106316e-05,-3.1663394111092202e-06,-1.6343956303899176e-05,3.173476943629794e-05
-5.366168261389248e-05,1.5011894902272616e-05,-1.788807821867522e-05,3.114449282293208e-05
-5.865913044544868e-05,4.238081237417646e-05,-1.8784336134558544e-05,2.9289973099366762e-05
-6.245104304980487e-05,6.221090006874874e-05,-2.022674379986711e-05,2.4451532226521522e-05
-7.335772534133866e-05,6.079681043047458e-05,-2.155585025320761e-05,1.7879892766359262e-05
-8.735964365769178e-05,4.156781506026164e-05,-2.341431172681041e-05,1.434951900591841e-05
-8.689110109116882e-05,2.0893809050903656e-05,-2.678762211871799e-05,1.3345667866815347e-05
-7.180549437180161e-05,8.261087714345194e-06,-3.0228156902012415e-05,1.0593952538329177e-05
-5.7791727158473805e-05,1.0139432561118156e-05,-3.062056566704996e-05,8.319038897752762e-06
-5.141771544003859e-05,2.467870399414096e-05,-2.8831480449298397e-05,9.287478860642295e-06
-5.31305413460359e-05,4.022010398330167e-05,-2.607776696095243e-05,1.1317859389237128e-05
-6.263413524720818e-05,4.6598579501733184e-05,-2.414923619653564e-05,1.1399305549275596e-05
-6.789025792386383e-05,4.5197681174613535e-05,-2.5914459911291488e-05,1.0879583896894474e-05
-6.961458711884916e-05,4.1980216337833554e-05,-2.7666597816278227e-05,1.6240879631368443e-05
-6.971797120058909e-05,3.0139379305182956e-05,-2.654543459357228e-05,2.418318581476342e-05
-6.708402361255139e-05,6.978443252592115e-06,-2.9264585464261472e-05,2.4786289941403084e-05
-6.161287456052378e-05,-1.644760232011322e-05,-3.080354872508906e-05,2.001058601308614e-05
-5.5804568546591327e-05,-2.601931191748008e-05,-2.9011893275310285e-05,2.0321282136137597e-05
-5.011417670175433e-05,-1.3485107956512365e-05,-2.892798147513531e-05,2.3088818124961108e-05
-4.431904017110355e-05,1.1770190212700982e-05,-2.859390042431187e-05,1.82631665666122e-05
-4.0904604247771204e-05,2.869298987207003e-05,-2.8092077627661638e-05,1.3005648725084029e-05
-3.508674490149133e-05,2.796672379190568e-05,-2.803604911605362e-05,1.5133058695937507e-05
-2.972817310364917e-05,2.156423215637915e-05,-2.965780186059419e-05,2.2059644834371284e-05
-2.6047908249893226e-05,1.1009054105670657e-05,-2.927930654550437e-05,2.8198968720971607e-05
-2.2819516743766144e-05,-2.3569320546812378e-05,-2.4620740077807568e-05,3.100258982158266e-05
-1.633446845517028e-05,-8.243342017522082e-05,-1.958088978426531e-05,3.2193114748224616e-05
-5.591703484242316e-06,-0.0001231343048857525,-1.789375710359309e-05,3.392549115233123e-05
3.947922778024804e-06,-0.00011278705642325804,-1.9694469301612116e-05,3.544633000274189e-05
6.062844931875588e-06,-6.786752783227712e-05,-1.9992645320598967e-05,3.603078948799521e-05
2.4750108877924504e-06,-2.7113397663924843e-05,-1.7656924683251418e-05,3.3250416890950873e-05
-2.1977921278448775e-06,-2.970868081320077e-06,-1.6567018974456005e-05,2.9027245545876212e-05
-1.1928068488487042e-05,2.2674305000691675e-05,-1.9546834664652124e-05,2.7439920813776553e-05
-2.6637786504579708e-05,6.170905544422567e-05,-2.628848233143799e-05,2.778846464934759e-05
-3.7884714402025566e-05,0.0001023204968078062,-3.2500087399967015e-05,2.7768764994107187e-05
-4.1502182284602895e-05,0.00013712562213186175,-3.234969699406065e-05,2.7308740754961036e-05
-4.4383756176102906e-05,0.00016834845882840455,-2.8752827347489074e-05,2.8104142984375358e-05
-5.110167330713011e-05,0.00018644740339368582,-2.941260754596442e-05,2.952007889689412e-05
-6.010532524669543e-05,0.00019383362086955458,-3.527463195496239e-05,3.169533738400787e-05
-6.980823673075065e-05,0.00020198087440803647,-3.9172555261757225e-05,3.149170515825972e-05
-8.143074956024066e-05,0.0002032959891948849,-3.8243673770921305e-05,2.9049704608041793e-05
-8.980178972706199e-05,0.00017983491125050932,-3.610915882745758e-05,2.4965469492599368e-05
-9.154969302471727e-05,0.00012529293599072844,-3.518376252031885e-05,2.1250814825179987e-05
-8.812726446194574e-05,6.654131721006706e-05,-3.336713052703999e-05,2.0501314793364145e-05
-7.317252311622724e-05,1.4679516425530892e-05,-3.0462055292446166e-05,2.208430669270456e-05
-5.02254806633573e-05,-3.222686791559681e-05,-2.7897596737602726e-05,2.676632720977068e-05
-3.787673995248042e-05,-5.123464507050812e-05,-2.6441510271979496e-05,3.04088753182441e-05
-3.7757399695692584e-05,-3.402346192160621e-05,-2.527420838305261e-05,2.9202647056081332e-05
-3.516937795211561e-05,6.3805200625211e-06,-1.9991095541627146e-05,2.7062362278229557e-05
-2.839298394974321e-05,5.0929684221046045e-05,-1.730496842355933e-05,2.5437577278353274e-05
-2.0189530914649367e-05,9.240301005775109e-05,-1.8645789168658666e-05,2.2548365450347774e-05
-1.8695460312301293e-05,0.00011557710968190804,-2.0045647033839487e-05,2.027996742981486e-05
-2.6704905394581147e-05,0.00010863988427445292,-2.4134435079758987e-05,1.9848828742397018e-05
-4.302372326492332e-05,8.228194201365113e-05,-3.054058106499724e-05,1.8068787539959885e-05
-6.177587056299672e-05,5.620810406981036e-05,-3.4208456781925634e-05,1.4518635907734279e-05
-6.971982656978071e-05,3.773911521420814e-05,-3.476061829132959e-05,1.3014368960284628e-05
-6.685443077003583e-05,2.507867247913964e-05,-3.486651985440403e-05,1.3478247637976892e-05
-6.149432738311589e-05,1.1541278581717052e-05,-3.394210580154322e-05,1.2348389645921998e-05
-5.7635625125840306e-05,-4.412077032611705e-06,-3.13101991196163e-05,1.2979451639694162e-05
-5.352805237635039e-05,-1.4655334780400153e-05,-3.0369510568561964e-05,1.836143565014936e-05
-5.144549868418835e-05,-1.3491370737028774e-05,-3.14233147946652e-05,2.361154656682629e-05
-4.929511487716809e-05,-2.07522202799737e-06,-3.024347279279027e-05,2.5858445951598696e-05
-4.69937440357171e-05,8.082050044322386e-06,-2.7646257876767777e-05,2.7980428058071993e-05
-4.769502629642375e-05,1.1999735761492047e-05,-2.849468910426367e-05,2.8943106372025795e-05
-5.042920747655444e-05,1.7369760826113634e-05,-3.1255163776222616e-05,2.7247571779298596e-05
-5.9761132433777675e-05,3.15175493597053e-05,-3.1070521799847484e-05,2.5154608010780066e-05
-7.108913268893957e-05,4.6013778046472e-05,-2.8074471629224718e-05,2.3369077098323032e-05
-7.910108979558572e-05,5.066041194368154e-05,-2.597292586870026e-05,1.8985865608556196e-05
-8.492673805449158e-05,4.0100760088535026e-05,-2.916942503361497e-05,1.3026664419157896e-05
-7.57661837269552e-05,1.666968091740273e-05,-3.503029438434169e-05,9.365980076836422e-06
-6.177659815875813e-05,-1.297330527449958e-06,-3.74327355530113e-05,1.516892371000722e-05
-5.720832632505335e-05,-7.681484021304641e-06,-3.5203534935135394e-05,2.4511686206096783e-05
-5.6618468079250306e-05,-1.1950850421271753e-05,-3.100044705206528e-05,2.6161960704484954e-05
-5.6836099247448146e-05,-5.57175007998012e-06,-2.655487878655549e-05,2.5436622308916412e-05
-5.687508746632375e-05,1.601515214133542e-05,-2.9571863706223667e-05,2.3666441848035902e-05
-5.5387768952641636e-05,3.557473246473819e-05,-3.4992033761227503e-05,2.268955904582981e-05
-5.093212894280441e-05,3.805941378232092e-05,-3.599610136006959e-05,2.053255775535945e-05
-4.747969433083199e-05,3.4102617064490914e-05,-3.5949495213571936e-05,1.8964174159918912e-05
-4.719460048363544e-05,2.6810457711690105e-05,-3.550385372363962e-05,2.036943806160707e-05
-4.8495057853870094e-05,1.2566937584779225e-05,-3.453806129982695e-05,2.2821714082965627e-05
-5.0800543249351904e-05,-1.7176735127577558e-06,-3.385572927072644e-05,2.4671133360243402e-05
-5.492259515449405e-05,-7.485904006898636e-06,-3.39535363309551e-05,2.5235740395146422e-05
-5.233163756201975e-05,-6.669260528724408e-06,-3.4008760849246755e-05,2.2270598492468707e-05
-4.076012555742636e-05,-8.672199328429997e-06,-3.442037632339634e-05,1.851122942753136e-05
-2.710963599383831e-05,-1.3373080037126783e-05,-3.4023159969365224e-05,1.6915981177589856e-05
-1.8123882910003886e-05,-1.6007059457479045e-05,-3.213867239537649e-05,1.7339125406579114e-05
-1.6610099919489585e-05,-1.1724305295501836e-05,-3.02507723972667e-05,1.9096081814495847e-05
-2.263194073748309e-05,1.1881307955263765e-06,-3.232350354664959e-05,1.8960439774673432e-05
-3.2375173759646714e-05,2.529532321204897e-05,-3.535417272360064e-05,1.9096891264780425e-05
-3.9919730625115335e-05,5.855217750649899e-05,-3.259524601162411e-05,2.1431762434076518e-05
-4.386249929666519e-05,8.111986971925944e-05,-2.7672409487422556e-05,2.530422352720052e-05
-4.776597779709846e-05,6.567300442839041e-05,-2.7719213903765194e-05,2.9194754461059347e-05
-5.5816468375269324e-05,2.395963019807823e-05,-2.924775253632106e-05,3.055253182537854e-05
-6.593642319785431e-05,-1.151754167949548e-05,-2.759571907517966e-05,2.4829752874211408e-05
-7.349013321800157e-05,-2.444548772473354e-05,-2.2735752281732857e-05,1.627229357836768e-05
-7.44686258258298e-05,-1.8636523236637004e-05,-1.9785667973337695e-05,1.3480314919434022e-05
-6.620793283218518e-05,-7.3069963946181815e-06,-1.9537974367267452e-05,1.8024897144641727e-05
-4.8162542952923104e-05,-6.149867886051652e-07,-1.9411994799156673e-05,2.5472490960964933e-05
-3.4410088119329885e-05,1.0321604349883273e-05,-2.0850276996497996e-05,3.1366220355266705e-05
-3.517703589750454e-05,3.843611557385884e-05,-2.280954686284531e-05,3.1947864044923335e-05
-4.311407246859744e-05,7.11576285539195e-05,-2.37320018641185e-05,2.792406849039253e-05
-5.328423867467791e-05,8.755774615565315e-05,-2.4523795218556188e-05,2.191526618844364e-05
-6.226244295248762e-05,7.3962815804407e-05,-2.6043546313303523e-05,1.7901162209454924e-05
-6.585001392522827e-05,4.58533140772488e-05,-2.8042972189723514e-05,1.7726459191180766e-05
-6.28060006420128e-05,3.859078060486354e-05,-2.8765000024577603e-05,2.2482456188299693e-05
-5.849035005667247e-05,5.787290501757525e-05,-2.6141888156416826e-05,2.593808494566474e-05
-5.275380681268871e-05,8.054918725974858e-05,-2.1918720449320972e-05,2.698950811463874e-05
-4.5390734157990664e-05,9.183892689179629e-05,-1.9062445062445477e-05,3.1878131267149e-05
-4.0637438360136e-05,9.167839016299695e-05,-1.7378795746481046e-05,3.70585621567443e-05
-3.7019442970631644e-05,9.084882913157344e-05,-1.4889243175275624e-05,3.529735477059148e-05
-3.258560900576413e-05,9.45029387366958e-05,-1.5265297406585887e-05,2.8122485673520714e-05
-2.6768695533974096e-05,9.58271193667315e-05,-1.9349981812410988e-05,2.124541970260907e-05
-2.557130756031256e-05,8.663573680678383e-05,-2.0723984562209807e-05,1.980114757316187e-05
-3.1475337891606614e-05,6.638592458330095e-05,-1.7236628991668113e-05,2.5732297217473388e-05
-3.873703462886624e-05,4.113138129469007e-05,-1.51554731928627e-05,3.161493441439234e-05
-3.932931576855481e-05,1.7027161447913386e-05,-1.6124758985824883e-05,3.243432001909241e-05
-3.632408333942294e-05,-2.6585709633764054e-07,-1.5892375813564286e-05,2.9301338145160116e-05
-3.45272637787275e-05,-9.128681995207444e-06,-1.3744503121415619e-05,2.612616663100198e-05
-3.680490772239864e-05,-7.844233550713398e-06,-1.290571344725322e-05,2.337210207770113e-05
-4.236213499098085e-05,-3.0521812277584104e-06,-1.3941817087470554e-05,2.0012734239571728e-05
-4.737162817036733e-05,-5.733696980314562e-06,-1.3591082279162947e-05,1.7503414710517973e-05
-5.434705599327572e-05,-8.973034709924832e-06,-1.3785197552351747e-05,1.999382584472187e-05
-6.220844079507515e-05,-5.398512257670518e-06,-1.623751268198248e-05,2.4316663257195614e-05
-6.182553624967113e-05,-2.4295559342135675e-06,-1.8929082216345705e-05,2.1802210540045053e-05
-5.854486153111793e-05,-8.98792734460585e-07,-2.2901935153640807e-05,1.893220360216219e-05
-5.953008803771809e-05,4.511058250500355e-06,-2.6239944418193772e-05,2.097387914545834e-05
-6.030500298948027e-05,7.782867214700673e-06,-2.7046924515161663e-05,2.1664365704054944e-05
-5.927711754338816e-05,9.165520168608055e-06,-2.8462578484322876e-05,2.236299405922182e-05
-5.686746590072289e-05,1.2588529898494016e-05,-3.107541488134302e-05,2.1572212062892504e-05
-5.8026082115247846e-05,1.0298848792444915e-05,-3.247418499086052e-05,2.058475001831539e-05
-5.7323850342072546e-05,1.4460766806223546e-06,-3.206681503797881e-05,2.1390096662798896e-05
-5.017954754293896e-05,-4.565466042549815e-06,-2.989176573464647e-05,2.1835186998941936e-05
-4.025700764032081e-05,9.77068452812091e-07,-2.626866080390755e-05,2.181322270189412e-05
-4.018368781544268e-05,9.506688002147712e-06,-2.5028240997926332e-05,2.344799395359587e-05
-4.945826003677212e-05,9.068228791875299e-06,-2.55252598435618e-05,2.78106836049119e-05
-5.439512460725382e-05,-4.832663307752227e-06,-2.6166271709371358e-05,3.119635584880598e-05
-4.7045548853930086e-05,-2.4513206881238148e-05,-2.6528672606218606e-05,3.1001934985397384e-05
-3.3948956115636975e-05,-3.979701432399452e-05,-2.5817631467361934e-05,2.877409315260593e-05
-2.6198238629149273e-05,-4.346907007857226e-05,-2.5265002477681264e-05,2.6981741029885598e-05
-2.4218261387431994e-05,-3.470888623269275e-05,-2.636852332216222e-05,2.637582838360686e-05
-2.4777118596830405e-05,-1.9000099200638942e-05,-2.6357271053711884e-05,2.6756864826893434e-05
-2.5661076506366953e-05,-1.5673522284487262e-06,-2.2660486138192937e-05,2.8320853743935004e-05
-2.8782058507204056e-05,1.3287567526276689e-05,-1.9087012333329767e-05,2.901829793700017e-05
-3.398593617021106e-05,2.639517879288178e-05,-1.914363747346215e-05,2.5329232812509872e-05
-3.778030441026203e-05,3.927305442630313e-05,-2.2390375306713395e-05,1.909574530145619e-05
-4.014641672256403e-05,5.3560943342745304e-05,-2.566956027294509e-05,1.3120048606651835e-05
-4.3585594539763406e-05,6.99775482644327e-05,-2.5238710804842412e-05,1.1657861250569113e-05
-3.7880789022892714e-05,8.517659443896264e-05,-1.9892626369255595e-05,1.660378256929107e-05
-2.569701428001281e-05,9.307613072451204e-05,-1.5540475942543708e-05,2.310423951712437e-05
-2.504541407688521e-05,8.479909593006596e-05,-1.566624632687308e-05,2.7577556465985253e-05
-4.1459876229055226e-05,6.466992635978386e-05,-1.3865815162716899e-05,2.5524084776407108e-05
-6.422957085305825e-05,5.354740278562531e-05,-1.167262416856829e-05,2.1221805582172237e-05
-8.248563972301781e-05,5.5316530051641166e-05,-1.3469318218994886e-05,2.1749045117758214e-05
-9.563269122736529e-05,7.208882016129792e-05,-1.7952006601262838e-05,2.2348351194523275e-05
-9.983119525713846e-05,9.415639942744747e-05,-2.61463374044979e-05,2.2532934963237494e-05
-9.84181315288879e-05,0.00011594702664297074,-3.235593612771481e-05,2.1294226826285012e-05
-0.00010167255823034793,0.00013329580542631447,-3.160028427373618e-05,1.914353561005555e-05
-9.895675611915067e-05,0.0001411939738318324,-2.7774849513662048e-05,1.8411295968689956e-05
-8.776867616688833e-05,0.0001516962074674666,-2.5678227757452987e-05,2.01166003535036e-05
-7.816209108568728e-05,0.0001624842843739316,-2.591842712718062e-05,2.1050551367807202e-05
-7.508023554692045e-05,0.00015010435890872031,-2.6941608666675165e-05,2.126027538906783e-05
-7.53317290218547e-05,0.0001085124458768405,-2.8014697818434797e-05,2.4311242668773048e-05
-7.090279541444033e-05,6.204732198966667e-05,-2.9387771064648405e-05,2.6808769689523615e-05
-6.241712253540754e-05,3.0874718504492193e-05,-3.104742427240126e-05,2.648040208441671e-05
-5.312852226779796e-05,1.938749301189091e-05,-3.380006455699913e-05,2.4800001483527012e-05
-4.738488496514037e-05,1.750601950334385e-05,-3.363690120750107e-05,2.439293166389689e-05
-4.8139987484319136e-05,2.228741141152568e-05,-2.859389132936485e-05,2.6619674827088602e-05
-5.464809146360494e-05,3.590591222746298e-05,-2.481217416061554e-05,2.9986415029270574e-05
-6.208392733242363e-05,5.174066609470174e-05,-2.6398556656204164e-05,3.054662374779582e-05
-6.83235630276613e-05,5.8065550547325984e-05,-3.0064662496442907e-05,2.823937938956078e-05
-6.899223080836236e-05,5.00500864291098e-05,-3.1107771064853296e-05,2.5632478354964405e-05
-6.0246344219194725e-05,3.383464354556054e-05,-3.0446743039647117e-05,2.4474162273691036e-05
-4.73444233648479e-05,1.8134107449441217e-05,-2.948079418274574e-05,2.3905306079541333e-05
-4.168422310613096e-05,1.1057545634685084e-05,-2.6875284675043076e-05,2.2140493456390686e-05
-4.631247429642826e-05,1.649984551477246e-05,-2.2792528397985734e-05,1.8368838937021792e-05
-4.938167694490403e-05,2.8912265406688675e-05,-1.987914220080711e-05,1.4588473277399316e-05
-4.682955477619544e-05,4.066971814609133e-05,-1.8804052160703577e-05,1.3368776308197994e-05
-4.680052734329365e-05,3.781539999181405e-05,-1.9946875909226947e-05,1.4338282198878005e-05
-5.297672396409325e-05,2.337648402317427e-05,-2.583399327704683e-05,1.507169599790359e-05
-5.7881567045114934e-05,6.689543170068646e-06,-2.8542039217427373e-05,1.3514967577066272e-05
-5.591369699686766e-05,-1.5133420674828812e-05,-2.653653791639954e-05,1.3904524166719057e-05
-5.498657628777437e-05,-3.845227911369875e-05,-2.7172796762897633e-05,1.668908225838095e-05
-5.095947562949732e-05,-5.676156433764845e-05,-2.8989992642891593e-05,1.897066249512136e-05
-4.198804163024761e-05,-6.152108107926324e-05,-3.3698099286993966e-05,2.135336399078369e-05
-3.487243520794436e-05,-5.48290518054273e-05,-3.7518377212109044e-05,2.1356843717512675e-05
-2.9297014407347888e-05,-4.454772351891734e-05,-3.7035515561001375e-05,2.0731638869619928e-05
-2.1573501726379618e-05,-4.04425518354401e-05,-3.309675958007574e-05,2.085200321744196e-05
-1.1725701369869057e-05,-4.239652116666548e-05,-2.8999058486078866e-05,2.1892030417802744e-05
-8.285003787023015e-06,-4.086364060640335e-05,-2.681264049897436e-05,2.370778202021029e-05
-1.0453994036652148e-05,-3.4414515539538115e-05,-2.636903263919521e-05,2.3726977815385908e-05
-1.0669838957255706e-05,-3.064802513108589e-05,-2.544639937696047e-05,2.1300624212017283e-05
-5.76605543756159e-06,-2.9009983336436562e-05,-2.3943350242916495e-05,2.008770388783887e-05
-3.6390019886312075e-06,-1.6746938854339533e-05,-2.2184964109328575e-05,2.1492975065484643e-05
-1.0075067621073686e-05,1.368223183817463e-05,-1.769033224263694e-05,2.4259363271994516e-05
-2.103295992128551e-05,6.631688302149996e-05,-1.2384277397359256e-05,2.7748166758101434e-05
-3.105353607679717e-05,0.00013472662249114364,-1.1493167221487965e-05,3.1546725949738175e-05
-4.149332016822882e-05,0.00018621940398588777,-1.3232251149020158e-05,3.4318760299356654e-05
-5.371529550757259e-05,0.00018941180314868689,-1.63006207003491e-05,3.349773396621458e-05
-6.792062049498782e-05,0.0001495877659181133,-2.246397707494907e-05,3.0812760087428614e-05
-8.028406591620296e-05,9.249267168343067e-05,-2.6488480216357857e-05,2.642045910761226e-05
-8.46812836243771e-05,4.4288277422310784e-05,-2.853377372957766e-05,2.0830915673286654e-05
-8.126920147333294e-05,2.0839615899603814e-05,-3.4361815778538585e-05,2.0089573808945715e-05
-7.300423749256879e-05,1.2146065273554996e-05,-3.808513793046586e-05,2.301660060766153e-05
-6.27299741609022e-05,4.965471021023404e-07,-3.4694690839387476e-05,2.6097071895492263e-05
-5.348593549570069e-05,-1.8035372704616748e-05,-2.9872458981117234e-05,2.7452741051092744e-05
-4.9339701945427805e-05,-2.7942709493800066e-05,-2.5610050215618685e-05,2.5039107640623115e-05
-4.9681737436912954e-05,-2.6184727175859734e-05,-2.3689060981268995e-05,2.289298572577536e-05
-5.175859769224189e-05,-2.5779494535527192e-05,-2.3928612790768966e-05,1.9268049072707072e-05
-5.376206536311656e-05,-1.730807707644999e-05,-2.5315583116025664e-05,1.5527075447607785e-05
-5.7365821703569964e-05,1.4465513231698424e-05,-2.522010800021235e-05,1.3040303201705683e-05
-5.990525824017823e-05,6.783414573874325e-05,-2.835310806403868e-05,1.276719103771029e-05
-6.318243686109781e-05,0.00010922022920567542,-2.990076427522581e-05,1.471402447350556e-05
-6.907594797667116e-05,0.00011316652671666816,-2.8937838578713126e-05,1.686488940322306e-05
-7.29255989426747e-05,9.13286057766527e-05,-3.052476677112281e-05,1.8083299437421374e-05
-7.007161912042648e-05,6.500715971924365e-05,-3.336257577757351e-05,1.7147394828498363e-05
-6.304886483121663e-05,4.362285108072683e-05,-3.277151699876413e-05,1.681715548329521e-05
-5.6779186706990004e-05,2.6828662157640792e-05,-3.059703158214688e-05,1.981519380933605e-05
-4.9432583182351664e-05,1.2239486750331707e-05,-3.2756783184595406e-05,2.4950961233116686e-05
-4.102656748727895e-05,5.332842079042166e-07,-3.675841435324401e-05,2.705163751670625e-05
-3.320914402138442e-05,-4.779667051479919e-06,-3.948189623770304e-05,2.6079000235768035e-05
-3.0142702598823234e-05,3.7061558941786643e-06,-3.859089338220656e-05,2.515205596864689e-05
-3.360601476742886e-05,2.9477558200596832e-05,-3.657369234133512e-05,2.43480517383432e-05
-4.1403687646379694e-05,5.834417970618233e-05,-3.5547367588151246e-05,2.221397153334692e-05
-5.087914178147912e-05,7.84220319474116e-05,-3.6678458855021745e-05,2.1983698388794437e-05
-5.739894913858734e-05,8.71721058501862e-05,-3.6824774724664167e-05,2.5044519134098664e-05
-5.431027966551483e-05,7.94248262536712e-05,-3.670654405141249e-05,2.8231608666828834e-05
-4.466557584237307e-05,5.8228677517035976e-05,-3.637405461631715e-05,3.013382047356572e-05
-3.8847421819809824e-05,4.066592737217434e-05,-3.378872497705743e-05,3.0542509193765e-05
-3.790838673012331e-05,3.489920709398575e-05,-3.008054045494646e-05,2.9946926588308997e-05
-3.6500317946774885e-05,3.832001311820932e-05,-2.7902548026759177e-05,3.054823537240736e-05
-3.0109902581898496e-05,4.07202351198066e-05,-2.565123031672556e-05,3.179918712703511e-05
-2.385202606092207e-05,3.3069172786781564e-05,-2.452806438668631e-05,3.426412877161056e-05
-2.491220220690593e-05,2.315185520274099e-05,-2.4493241653544828e-05,3.8439364288933575e-05
-2.7226809834246524e-05,2.226762444479391e-05,-2.3446727936971e-05,4.053440352436155e-05
-2.9895230909460224e-05,1.962676651601214e-05,-2.404983933956828e-05,4.1337487346027046e-05
-3.66509411833249e-05,9.110542123380583e-06,-2.4490458599757403e-05,3.9799793739803135e-05
-4.4449116103351116e-05,1.161121076620475e-06,-2.349285023228731e-05,3.276481947978027e-05
-4.539658402791247e-05,6.320543889160035e-06,-2.7409107133280486e-05,2.6630355932866223e-05
-3.948148514609784e-05,1.594410787220113e-05,-3.2463110983371735e-05,2.5559247660567053e-05
-3.574483343982138e-05,1.997347135329619e-05,-3.2291362003888935e-05,2.6724002964328974e-05
-3.703264155774377e-05,2.0205297914799303e-05,-3.111471232841723e-05,2.8348025807645172e-05
-4.0317841921932995e-05,1.7452721294830553e-05,-3.274011760368012e-05,3.0707022233400494e-05
-4.3692245526472107e-05,1.7428072169423103e-05,-3.3751890441635624e-05,3.242557795601897e-05
-4.6308083256008103e-05,1.8528842701925896e-05,-3.449452924542129e-05,3.240831210860051e-05
-4.671155693358742e-05,2.008962292165961e-05,-3.6376466596266255e-05,2.96696052828338e-05
-4.616727164830081e-05,2.0678799046436325e-05,-3.5956476494902745e-05,2.5074084987863898e-05
-4.564265691442415e-05,1.2157074706919957e-05,-3.218357960577123e-05,2.204039628850296e-05
-4.5790056901751086e-05,-1.0557423593127169e-05,-2.7757256248150952e-05,2.077823410218116e-05
-4.949879803461954e-05,-3.2059131626738235e-05,-2.5070348783629015e-05,2.0304229110479355e-05
-5.3158888476900756e-05,-3.611546344473027e-05,-2.107433829223737e-05,2.0028855942655355e-05
-4.957151395501569e-05,-2.4615028451080434e-05,-1.7838425264926627e-05,1.909767888719216e-05
-4.213260763208382e-05,-4.782330961461412e-06,-1.9117436750093475e-05,1.854147922131233e-05
-3.656830813270062e-05,1.4380834727489855e-05,-1.9564218746381812e-05,1.9016992155229673e-05
-3.7081023037899286e-05,2.7964289984083734e-05,-1.4951075172575656e-05,1.8193981304648332e-05
-4.76107161375694e-05,4.050107963848859e-05,-1.3825341738993302e-05,1.6342626622645184e-05
-5.745519229094498e-05,5.459111343952827e-05,-1.576078648213297e-05,1.484037420595996e-05
-5.4054184147389606e-05,6.393542571458966e-05,-1.6140309526235797e-05,1.7351956557831727e-05
-4.8427769797854125e-05,6.896741251694039e-05,-1.6400952517869882e-05,1.847830026235897e-05
-5.171180600882508e-05,6.992064299993217e-05,-1.4768414985155687e-05,1.9268809410277754e-05
-5.6519096688134596e-05,5.973875158815645e-05,-1.691775833023712e-05,2.7444928491604514e-05
-5.782420339528471e-05,4.377570076030679e-05,-2.053223033726681e-05,3.12726988340728e-05
-5.409990262705833e-05,2.2304999220068567e-05,-1.87134701263858e-05,2.8423330149962567e-05
-4.9432932428317145e-05,1.0398209724371554e-06,-1.8949596778838895e-05,2.2866421204525977e-05
-4.988412911188789e-05,-2.519629106245702e-06,-2.154574940504972e-05,1.8808073946274817e-05
-5.108184996061027e-05,8.608206371718552e-06,-2.2217245714273304e-05,2.290254269610159e-05
-5.0768405344570056e-05,2.364096144447103e-05,-2.1647909306921065e-05,2.784995194815565e-05
-4.8420904931845143e-05,3.631545769167133e-05,-2.275691440445371e-05,2.8017553631798364e-05
-4.655269003706053e-05,4.656326200347394e-05,-2.4280425350298174e-05,2.6513904231251217e-05
-4.540065856417641e-05,5.501452324097045e-05,-2.7421869162935764e-05,2.5689636458992027e-05
-4.926485780742951e-05,6.3053666963242e-05,-2.9427554181893356e-05,2.3078013327904046e-05
-5.585233884630725e-05,7.361853204201907e-05,-3.028265382454265e-05,2.097575088555459e-05
-5.83702239964623e-05,8.468468149658293e-05,-3.1439372833119705e-05,2.246630538138561e-05
-5.830356531077996e-05,8.569150668336079e-05,-3.078842200920917e-05,2.5294883016613312e-05
-5.984462404740043e-05,7.140968227759004e-05,-2.8194956030347385e-05,2.793314342852682e-05
-6.395506352419034e-05,5.5966826039366424e-05,-2.3443421014235355e-05,3.115672734566033e-05
-6.621527427341789e-05,5.278901880956255e-05,-2.052602758340072e-05,3.24808424920775e-05
-6.395115633495152e-05,5.535857053473592e-05,-2.167972161259968e-05,2.955918353109155e-05
-6.015892358846031e-05,4.870164775638841e-05,-2.5487912353128195e-05,2.535780549806077e-05
-6.246570410439745e-05,3.320197720313445e-05,-2.777770350803621e-05,2.3693703042226844e-05
-6.519747694255784e-05,2.233908890048042e-05,-2.5482104319962673e-05,2.571380537119694e-05
-6.229191058082506e-05,2.1311363525455818e-05,-2.047763700829819e-05,2.7720174330170266e-05
-6.290004239417613e-05,2.921671148214955e-05,-1.998227344301995e-05,2.8380247385939583e-05
-7.15725909685716e-05,4.350460221758112e-05,-2.363522617088165e-05,2.590249823697377e-05
-7.559666846645996e-05,5.099341069580987e-05,-2.6207764676655643e-05,2.2177975552040152e-05
-7.079916395014152e-05,5.230825991020538e-05,-2.5234612621716224e-05,2.1194753571762703e-05
-6.12911899224855e-05,7.1986265538726e-05,-2.7993850380880758e-05,2.1116611605975777e-05
-5.775417957920581e-05,9.63804850471206e-05,-3.2869142160052434e-05,2.0616969777620398e-05
-5.843051621923223e-05,9.220126958098263e-05,-3.336880399729125e-05,2.03907420655014e-05
-5.5996020819293335e-05,5.930601037107408e-05,-3.108214514213614e-05,2.1564912458416075e-05
-5.012065594200976e-05,9.993405910790898e-06,-2.916442281275522e-05,2.336393663426861e-05
-3.5424731322564185e-05,-3.1273764761863276e-05,-2.7466930987429805e-05,2.3930941097205505e-05
-2.0786470486200415e-05,-3.899718649336137e-05,-2.6257817808073014e-05,2.1973874027025886e-05
-1.5656718460377306e-05,-2.961752215924207e-05,-2.5208631996065378e-05,2.0183635569992475e-05
-2.266611591039691e-05,-5.1129954954376444e-05,-2.3533111743745394e-05,1.9231014448450878e-05
-2.9880671718274243e-05,-0.00010549519356573,-2.4008986656554043e-05,1.7384054444846697e-05
-3.0297773264464922e-05,-0.0001420243934262544,-2.5388288122485392e-05,1.8065100448438898e-05
-2.984508864756208e-05,-0.00012917141430079937,-2.573100027802866e-05,2.3800250346539542e-05
-3.0217697712942027e-05,-8.096989768091589e-05,-2.320351268281229e-05,2.983408012369182e-05
-3.430459400988184e-05,-2.340684659429826e-05,-2.0585415768437088e-05,3.185764217050746e-05
-3.960405956604518e-05,2.237217631773092e-05,-2.0894538465654477e-05,3.164601730532013e-05
-4.220628761686385e-05,4.2364867113064975e-05,-2.3099471945897676e-05,3.0181470719981007e-05
-4.4871085265185684e-05,3.9954982639756054e-05,-2.3922508262330666e-05,2.8385889891069382e-05
-5.4314496082952246e-05,3.974267383455299e-05,-2.310658965143375e-05,2.930159098468721e-05
-6.563028728123754e-05,5.95177843933925e-05,-2.1904754248680547e-05,3.258222568547353e-05
-7.31579348212108e-05,8.97013014764525e-05,-2.0916262656101026e-05,3.325975194456987e-05
-7.880824705353007e-05,0.00011655266280286014,-1.9967923435615376e-05,3.275146445957944e-05
-7.997968350537121e-05,0.00013018926256336272,-1.8783259292831644e-05,3.2521791581530124e-05
-7.372142863459885e-05,0.00012740732927341014,-1.7055272110155784e-05,3.13439522869885e-05
-6.803253927500919e-05,0.00012275493645574898,-1.5905821783235297e-05,2.886601214413531e-05
-6.897176353959367e-05,0.00012396393867675215,-1.6903099094633944e-05,2.799886897264514e-05
-7.52511914470233e-05,0.0001165825524367392,-1.8995431673829444e-05,2.5966050088754855e-05
-8.139054261846468e-05,9.395283268531784e-05,-1.9878227249137126e-05,1.9519318811944686e-05
-8.144172898028046e-05,6.843217124696821e-05,-2.1468038539751433e-05,1.5927325875964016e-05
-7.471109711332247e-05,5.93345430388581e-05,-2.156482878490351e-05,1.7040838429238647e-05
-6.348153692670166e-05,5.65644477319438e-05,-1.9762372176046483e-05,1.8535751223680563e-05
-5.173384852241725e-05,4.2960269638570026e-05,-1.7892258256324567e-05,1.8084201656165533e-05
-4.4778778828913346e-05,2.6363950382801704e-05,-1.6527817933820188e-05,1.7455502529628575e-05
-4.3846219341503456e-05,1.2422885447449517e-05,-1.9144074030919e-05,1.5827856259420514e-05
-4.2194606066914275e-05,2.863720737877884e-06,-2.228481571364682e-05,1.4963154171709903e-05
-3.9455047954106703e-05,-3.2782679681986338e-06,-2.539979323046282e-05,1.6682801287970506e-05
-3.7933350540697575e-05,-8.184905709640589e-06,-2.7995392883894965e-05,2.117473559337668e-05
-4.1086321289185435e-05,-1.1521088708832394e-05,-2.9325863579288125e-05,2.3475535272154957e-05
-4.3418975110398605e-05,-1.0970262337650638e-05,-2.8400563678587787e-05,2.3939181119203568e-05
-3.9458900573663414e-05,-4.902506134385476e-06,-2.8901624318677932e-05,2.5646560970926657e-05
-2.969019624288194e-05,9.618563126423396e-06,-3.0546856578439474e-05,2.6917668947135098e-05
-2.054252036032267e-05,3.599727278924547e-05,-2.9989965696586296e-05,2.8053425921825692e-05
-1.8834962247638032e-05,6.814319203840569e-05,-2.790976759570185e-05,2.7211513952352107e-05
-1.9016360965906642e-05,9.010992653202266e-05,-2.7446663807495497e-05,2.4994566047098488e-05
-1.6331658116541803e-05,9.765343565959483e-05,-2.8780159482266754e-05,2.44737329921918e-05
-1.4605266187572852e-05,0.00010830400424310938,-2.8095080779166892e-05,2.5194098270731047e-05
-1.93976447917521e-05,0.00012969151430297643,-2.4427707103313878e-05,2.3174723537522368e-05
-2.9243919925647788e-05,0.00014378904597833753,-2.069758738798555e-05,2.0527288143057376e-05
-4.038046608911827e-05,0.00013576708442997187,-2.2352192900143564e-05,1.8514323528506793e-05
-5.519468686543405e-05,0.00010044610098702833,-2.5607321731513366e-05,1.785432505130302e-05
-7.234677468659356e-05,4.7294768592109904e-05,-2.7764754122472368e-05,1.6957154002739117e-05
-7.74845975684002e-05,6.105668489908567e-06,-2.8372696760925464e-05,1.5081280253070872e-05
-6.611464050365612e-05,-1.4040753740118816e-05,-2.8572592782438733e-05,1.4389645912160631e-05
-4.782216637977399e-05,-2.3760801923344843e-05,-2.7408465030021034e-05,1.3932041838415898e-05
-3.5684304748428985e-05,-2.2952801373321563e-05,-2.576895167294424e-05,1.5179602087300736e-05
-3.0284187232609838e-05,-3.1117485832510283e-06,-2.6480480300961062e-05,1.796113974705804e-05
-3.06358233501669e-05,1.6891755876713432e-05,-2.3522266928921454e-05,1.854804031609092e-05
-3.618392292992212e-05,1.875793532235548e-05,-2.1302801542333327e-05,1.8377988453721628e-05
-4.046037429361604e-05,5.679696187144145e-06,-2.4292441594297998e-05,1.9046939996769652e-05
-4.199969407636672e-05,-1.639811489440035e-05,-2.6160236302530393e-05,1.8156722944695503e-05
-4.066818655701354e-05,-2.9375521990004927e-05,-2.353738273086492e-05,1.9084724044660106e-05
-4.450281267054379e-05,-2.1947071218164638e-05,-1.8885866666096263e-05,2.272504207212478e-05
-5.43226815352682e-05,-1.118672230404627e-06,-1.8883887605625205e-05,2.4317190764122643e-05
-6.498840230051428e-05,2.1181045667617582e-05,-1.9137833078275435e-05,2.46919589699246e-05
-7.479271880583838e-05,3.1579485948896036e-05,-1.7747250240063295e-05,2.583048444648739e-05
-8.007932774489745e-05,2.4098626454360783e-05,-1.696825165709015e-05,2.5461600671405904e-05
-7.800569437677041e-05,1.4188623936206568e-05,-1.657764005358331e-05,2.546172618167475e-05
-7.349597581196576e-05,1.592202897882089e-05,-1.520477599115111e-05,2.86704034806462e-05
-7.208832539618015e-05,3.906047641066834e-05,-1.2530766980489716e-05,3.099284367635846e-05
-6.999366451054811e-05,8.138464909279719e-05,-1.2515365597209893e-05,3.000218202942051e-05
-6.515908899018541e-05,0.00012498906289692968,-1.6244568541878834e-05,2.7847945602843538e-05
-6.082055551814847e-05,0.00014400645159184933,-2.0604311430361122e-05,2.7650510673993267e-05
-6.048324939911254e-05,0.00012774282367900014,-2.5181472665281035e-05,2.8075279260519892e-05
-6.235987530089915e-05,9.0662288130261e-05,-3.3340344089083374e-05,2.6127185265067965e-05
-6.530594691867009e-05,5.349831189960241e-05,-4.279470522305928e-05,2.221524300694e-05
-6.699684308841825e-05,2.4020935597945936e-05,-4.813824489247054e-05,1.8720573280006647e-05
-6.436162220779806e-05,-6.516465418826556e-06,-4.681761492975056e-05,1.800464633561205e-05
-5.800258077215403e-05,-4.357154466561042e-05,-4.387971421238035e-05,1.8519245713832788e-05
-5.178488208912313e-05,-6.863013550173491e-05,-3.9560509321745485e-05,1.583380435477011e-05
-5.225063068792224e-05,-5.89960218349006e-05,-3.281726822024211e-05,1.3161299648345448e-05
-5.7701825426192954e-05,-3.5723609471460804e-05,-2.59751013800269e-05,1.4650176126451697e-05
-5.871064786333591e-05,-2.0168847186141647e-05,-2.294418663950637e-05,1.8929773432319053e-05
-6.188855331856757e-05,-7.642322998435702e-06,-2.448693703627214e-05,2.0790455891983584e-05
-6.850305362604558e-05,-3.831532069398236e-07,-2.840506385837216e-05,2.0493716874625534e-05
-6.940334424143657e-05,6.187116468936438e-06,-3.262395694036968e-05,2.079807200061623e-05
-6.491132080554962e-05,1.4328796169138514e-05,-3.262128302594647e-05,2.2283478756435215e-05
-5.358649286790751e-05,1.798380253603682e-05,-2.935399788839277e-05,2.4087721612886526e-05
-4.02705991291441e-05,2.0631978259189054e-05,-2.4601866243756376e-05,2.213685365859419e-05
-3.0040797355468385e-05,2.1160927644814365e-05,-2.385479092481546e-05,2.3016906197881326e-05
-2.5466175429755822e-05,1.730493204377126e-05,-2.430643689876888e-05,2.4622899218229577e-05
-2.5288753022323363e-05,1.1773335245379712e-05,-2.262586531287525e-05,2.196144123445265e-05
-3.108470264123753e-05,1.2202315701870248e-05,-2.241584297735244e-05,1.7283990018768236e-05
-3.62562968803104e-05,1.7853104509413242e-05,-2.3191661966848187e-05,2.032722841249779e-05
-3.4026950743282214e-05,2.3431959562003613e-05,-2.165380647056736e-05,2.8280215701670386e-05
-3.259444565628655e-05,2.3132657588575967e-05,-1.8605089280754328e-05,3.133485006401315e-05
-3.9754650060785934e-05,1.9544793758541346e-05,-1.946238990058191e-05,2.962686266982928e-05
-5.096515087643638e-05,2.0589595806086436e-05,-2.3661297746002674e-05,2.8068705432815477e-05
-5.3576815844280645e-05,2.5918439860106446e-05,-2.64066293311771e-05,2.9109791285009123e-05
-4.824680945603177e-05,3.1564886739943177e-05,-2.6644360332284123e-05,2.88375867967261e-05
-4.4107560825068504e-05,3.594368899939582e-05,-2.844687332981266e-05,2.696341289265547e-05
-4.660721970140003e-05,4.0549333789385855e-05,-3.0248393159126863e-05,2.544345443311613e-05
-5.035187496105209e-05,4.2620125896064565e-05,-2.8989028578507714e-05,2.3901002350612544e-05
-4.937049016007222e-05,4.190659456071444e-05,-2.4956090783234686e-05,2.0169296476524323e-05
-4.866632298217155e-05,3.8233603845583275e-05,-2.1311783712008037e-05,1.9203731426387094e-05
-5.261190017336048e-05,3.2835829188115895e-05,-2.0808656699955463e-05,2.2122952941572294e-05
-5.4629912483505905e-05,3.251987072871998e-05,-2.16916341742035e-05,2.3983306164154783e-05
-5.026237704441883e-05,3.87788750231266e-05,-2.0109011529712006e-05,2.168648825318087e-05
-4.584450653055683e-05,4.243102011969313e-05,-1.585930476721842e-05,1.8950782759930007e-05
-4.485534009290859e-05,3.9691953134024516e-05,-1.4157388250168879e-05,1.773655276338104e-05
-3.788046524277888e-05,3.662367817014456e-05,-1.5810090189916082e-05,1.9270826669526286e-05
-2.6428202545503154e-05,3.8223057345021516e-05,-1.5208727745630313e-05,2.3238937501446344e-05
-2.5618832296459004e-05,4.124725819565356e-05,-1.2905911717098206e-05,2.6833566153072752e-05
-3.482880856608972e-05,4.530212390818633e-05,-1.3749940080742817e-05,2.955328454845585e-05
-3.943924093618989e-05,5.47462550457567e-05,-1.9426730432314798e-05,2.8229520466993563e-05
-3.636312249000184e-05,6.809359911130741e-05,-2.5513458240311593e-05,2.6299630917492323e-05
-3.0379025702131912e-05,7.593785267090425e-05,-2.787431913020555e-05,2.6813562726601958e-05
-3.027479033335112e-05,7.434548751916736e-05,-2.6234563847538084e-05,2.5653540433268063e-05
-3.349270627950318e-05,6.824944284744561e-05,-2.3466613129130565e-05,2.3205830075312406e-05
-3.5801353078568354e-05,5.857096766703762e-05,-2.1667419787263498e-05,1.874577719718218e-05
-4.04004349547904e-05,5.076269371784292e-05,-2.2616644855588675e-05,1.9328444977873005e-05
-4.425197039381601e-05,4.501229341258295e-05,-2.4717079213587567e-05,2.4980492526083253e-05
-4.5791435695718974e-05,2.293883699167054e-05,-2.7435258743935265e-05,2.710230000957381e-05
-4.521575101534836e-05,-1.768277979863342e-05,-3.251978341722861e-05,2.239886816823855e-05
-4.637228630599566e-05,-5.2211722504580393e-05,-3.732709228643216e-05,1.819184035412036e-05
-4.845641888095997e-05,-6.707030843244866e-05,-3.8416099414462224e-05,2.0500920072663575e-05
-4.981037636753172e-05,-6.950601527933031e-05,-3.70604611816816e-05,2.4729282813495956e-05
-4.9994672735920176e-05,-6.23190135229379e-05,-3.5409681004239246e-05,2.3895312551758252e-05
-5.048936509410851e-05,-4.276383697288111e-05,-3.362510688020848e-05,2.020915417233482e-05
-4.75630622531753e-05,-1.750099181663245e-05,-3.070549792028032e-05,1.9867016817443073e-05
-4.3140786146977916e-05,1.9777048692048993e-06,-2.7324706024955958e-05,2.1481217117980123e-05
-4.1253104427596554e-05,1.18470970846829e-05,-2.841519562934991e-05,2.475236397003755e-05
-3.725532224052586e-05,1.6378378859371878e-05,-3.2930922316154465e-05,2.6134346626349725e-05
-3.075504719163291e-05,3.1531049899058416e-05,-3.748028393601999e-05,2.3957130906637758e-05
-3.321934855193831e-05,6.974043935770169e-05,-3.9577189454576e-05,1.78348709596321e-05
-4.705998799181543e-05,0.00011834564065793529,-3.842555815936066e-05,1.0756237315945327e-05
-5.910412437515333e-05,0.00014918991655576974,-3.907718928530812e-05,7.607465249748202e-06
-6.634189048781991e-05,0.00014621370064560324,-4.2070780182257295e-05,1.097877884603804e-05
-7.770084630465135e-05,0.00011905230348929763,-3.496793578960933e-05,1.592833905306179e-05
-8.465941937174648e-05,8.898847590899095e-05,-3.0822302505839616e-05,2.043144741037395e-05
-7.907565304776654e-05,7.578387157991529e-05,-3.479353472357616e-05,2.319776285730768e-05
-7.148458826122805e-05,8.047939627431333e-05,-3.323590863146819e-05,1.9584047549869865e-05
-6.506354111479595e-05,8.621550659881905e-05,-2.7003599825548008e-05,1.37049928525812e-05
-6.306161230895668e-05,7.672567153349519e-05,-2.3312120902119204e-05,1.6172658433788456e-05
-5.8513694966677576e-05,5.059953764430247e-05,-2.425138882244937e-05,2.2783218810218386e-05
-5.1253504352644086e-05,1.353686548100086e-05,-2.5394676413270645e-05,2.263800888613332e-05
-5.3838168241782114e-05,-1.962872556759976e-05,-2.6925885322270915e-05,1.906051875266712e-05
-6.328185554593801e-05,-2.8316309908404946e-05,-2.6371368221589364e-05,1.962956230272539e-05
-6.0832353483419865e-05,-4.655556949728634e-06,-2.40166082221549e-05,2.324941669940017e-05
-4.829727913602255e-05,4.128920772927813e-05,-2.064713044092059e-05,2.390388908679597e-05
-4.430572153069079e-05,8.371125295525417e-05,-1.9172348402207717e-05,2.14428855542792e-05
-5.211905954638496e-05,9.371945634484291e-05,-2.1602858396363445e-05,2.0016108464915305e-05
-6.0054167988710105e-05,6.346408918034285e-05,-2.8659749659709632e-05,2.0317886082921177e-05
-5.776366015197709e-05,2.260318615299184e-05,-3.629625280154869e-05,2.1574274796876125e-05
-5.252320988802239e-05,1.0958287020912394e-05,-3.8919573853490874e-05,2.163655517506413e-05
-5.56874911126215e-05,3.8146314182085916e-05,-3.608422048273496e-05,1.8586395526654087e-05
-6.558828317793086e-05,7.996214117156342e-05,-3.231398295611143e-05,1.561166936880909e-05
-6.972646951908246e-05,0.00011115623055957258,-2.9405662644421682e-05,1.7255686543649063e-05
-6.268970901146531e-05,0.00012331253674346954,-2.727029459492769e-05,2.176679663534742e-05
-5.335654714144766e-05,0.00012434145901352167,-2.5640994863351807e-05,2.564707574492786e-05
-5.292762944009155e-05,0.00012204376980662346,-2.633688745845575e-05,2.9106222427799366e-05
-5.690756006515585e-05,0.00011249326053075492,-3.0030476409592666e-05,2.7970334485871717e-05
-6.042654058546759e-05,9.712142491480336e-05,-2.9530352549045347e-05,2.5225523131666705e-05
-6.448088242905214e-05,9.069201769307256e-05,-2.6742660338641144e-05,2.5753106456249952e-05
-6.792265048716217e-05,8.632943354314193e-05,-2.116405994456727e-05,2.852082616300322e-05
-6.778634997317567e-05,6.031762677594088e-05,-1.4363656191562768e-05,3.0265933673945256e-05
-6.245030817808583e-05,6.458896223193733e-06,-1.1638265277724713e-05,2.932963070634287e-05
-5.463292472995818e-05,-6.244747783057392e-05,-1.241658810613444e-05,2.4061009753495455e-05
-5.0411585107212886e-05,-0.00010667059541447088,-1.4119767001830041e-05,2.0443931134650484e-05
-4.872434874414466e-05,-9.101754403673112e-05,-1.8433955119689927e-05,2.45296487264568e-05
-4.9555081204744056e-05,-4.0350016206502914e-05,-2.3666309061809443e-05,2.644420601427555e-05
-5.254283678368665e-05,-6.226887762750266e-06,-2.5445609935559332e-05,2.3657046767766587e-05
-5.3676722018281e-05,-8.489215360896196e-06,-2.6734844141174108e-05,2.2424528651754372e-05
-5.304362275637686e-05,-3.696351632243022e-05,-2.7189535103389062e-05,2.391239468124695e-05
-4.694008021033369e-05,-5.999141649226658e-05,-2.646522807481233e-05,2.5555964384693652e-05
-3.784590808209032e-05,-5.616089765680954e-05,-2.5654473574832082e-05,2.6410478312755004e-05
-3.180361454724334e-05,-3.4050251997541636e-05,-2.5204366465914063e-05,2.4710589059395716e-05
-3.486971036181785e-05,-1.3652070265379734e-05,-2.424016383884009e-05,2.2869016902404837e-05
-4.028882904094644e-05,-3.4566739941510605e-06,-2.336841862415895e-05,2.2645946955890395e-05
-4.147292929701507e-05,-1.7548514961163164e-06,-2.2145508410176262e-05,2.241137917735614e-05
-3.8782025512773544e-05,-3.930975253751967e-06,-1.8902361262007616e-05,2.2122261725598946e-05
-3.496901263133623e-05,-3.1776894502399955e-06,-1.568334482726641e-05,2.239729292341508e-05
-3.5101311368634924e-05,5.313271230988903e-06,-1.6275938833132386e-05,2.2966421965975314e-05
-3.830814239336178e-05,1.628900099603925e-05,-2.057090932794381e-05,2.4352848413400352e-05
-3.926179851987399e-05,2.082273567793891e-05,-2.432387373119127e-05,2.6713772967923433e-05
-3.903969263774343e-05,2.037595368165057e-05,-2.4983375624287874e-05,2.6641555450623855e-05
-4.1456361941527575e-05,2.1628304239129648e-05,-2.6596278985380195e-05,2.3216003683046438e-05
-4.302179877413437e-05,2.8523994842544198e-05,-3.0413197237066925e-05,2.0970053810742684e-05
-4.133029869990423e-05,3.0656658054795116e-05,-3.084276613662951e-05,2.3482049073209055e-05
-3.576335438992828e-05,2.216463690274395e-05,-2.9361459382926114e-05,2.753976332314778e-05
-2.732720531639643e-05,1.060397789842682e-05,-3.000944525410887e-05,2.969385423057247e-05
-2.238259003206622e-05,-4.208160135021899e-06,-3.354253567522392e-05,3.085445496253669e-05
-2.341456820431631e-05,-2.246679832751397e-05,-3.2280117011396214e-05,3.207406189176254e-05
-2.353413583477959e-05,-3.777830352191813e-05,-2.863640656869393e-05,3.0394750865525566e-05
-2.2702302885591052e-05,-4.550543235382065e-05,-2.866364775400143e-05,3.220983853680082e-05
-2.7317933927406557e-05,-3.9719274354865775e-05,-2.9655106118298136e-05,3.3199292374774814e-05
-4.057720070704818e-05,-1.826097104640212e-05,-3.230198490200564e-05,2.7486292310641147e-05
-4.7727076889714226e-05,1.3427754311123863e-05,-3.091121470788494e-05,2.2302925572148524e-05
-4.676979369833134e-05,5.00672213092912e-05,-2.6041956516564824e-05,2.0482140826061368e-05
-5.131723446538672e-05,8.804031676845625e-05,-2.4866854801075533e-05,1.9922137653338723e-05
-5.959041664027609e-05,0.00011345381790306419,-2.584766480140388e-05,2.1134610506123863e-05
-6.158609903650358e-05,0.00012340226385276765,-2.538871740398463e-05,2.4425506126135588e-05
-5.823134051752277e-05,0.0001297658891417086,-2.8295662559685297e-05,2.737646173045505e-05
-5.8731304307002574e-05,0.00013772504462394863,-3.381960414117202e-05,2.9853090381948277e-05
-6.517377187265083e-05,0.0001434671285096556,-3.6265861126594245e-05,3.326922524138354e-05
-7.49641185393557e-05,0.00013780186418443918,-3.429864227655344e-05,3.6760218790732324e-05
-7.974063191795722e-05,0.0001198060781462118,-2.9999480830156244e-05,3.584411751944572e-05
-7.723768794676289e-05,9.667728591011837e-05,-2.5687731977086514e-05,3.0995041015557945e-05
-7.5351788836997e-05,7.548221765318885e-05,-2.21221362153301e-05,2.7965717890765518e-05
-7.620685209985822e-05,5.928748578298837e-05,-1.9181079551344737e-05,2.9280443413881585e-05
-7.324826583499089e-05,4.5886503357905895e-05,-1.6973594028968364e-05,2.991408109664917e-05
-6.442818994401023e-05,3.237324926885776e-05,-1.714800418994855e-05,2.846416646207217e-05
-5.624515324598178e-05,2.4111343009280972e-05,-1.902251642604824e-05,2.8853681214968674e-05
-5.496424273587763e-05,2.3678514480707236e-05,-1.893058288260363e-05,3.110147008555941e-05
-5.414715633378364e-05,2.8460481189540587e-05,-1.91547951544635e-05,3.0674684239784256e-05
-5.1672570407390594e-05,3.08151138597168e-05,-1.9849750970024616e-05,2.8450573154259473e-05
-4.665038068196736e-05,1.9052742572966963e-05,-1.7377846234012395e-05,2.5778557755984366e-05
-4.325124973547645e-05,-1.0115445547853597e-05,-1.564415288157761e-05,2.247628799523227e-05
-4.9417096306569874e-05,-4.203823482384905e-05,-1.75758632394718e-05,1.987605355679989e-05
-4.8881909606279805e-05,-5.061056435806677e-05,-2.439161835354753e-05,1.8083961549564265e-05
-3.93537302443292e-05,-4.2385305278003216e-05,-2.745947494986467e-05,1.8154416466131806e-05
-2.726172169786878e-05,-2.9000771974097006e-05,-2.3573611542815343e-05,2.0456234778976068e-05
-2.022260923695285e-05,-6.936906629562145e-06,-2.1161475160624832e-05,2.624654553073924e-05
-2.5752668079803698e-05,1.8010054191108793e-05,-2.2725480448571034e-05,3.554353679646738e-05
-3.4432418033247814e-05,3.4796466934494674e-05,-2.2732765501132235e-05,3.773941352847032e-05
-3.971145270043053e-05,3.9080765418475494e-05,-1.986877032322809e-05,3.338072565384209e-05
-4.1545838030287996e-05,4.2365765693830326e-05,-2.115144525305368e-05,3.047422615054529e-05
-4.377211007522419e-05,4.61484887637198e-05,-2.5000586902024224e-05,3.1003022741060704e-05
-4.5528620830737054e-05,5.353591768653132e-05,-2.570134529378265e-05,3.524120256770402e-05
-4.943751264363527e-05,6.539350579259917e-05,-2.714291440497618e-05,3.9859736716607586e-05
-5.497480378835462e-05,7.443819777108729e-05,-2.8963511795154773e-05,3.908958751708269e-05
-5.621828677249141e-05,7.212890341179445e-05,-3.0336925192386843e-05,3.219445716240443e-05
-5.01568429172039e-05,5.786630936199799e-05,-3.047380960197188e-05,2.6318299205740914e-05
-4.2039020627271384e-05,4.234753578202799e-05,-2.8976188332308084e-05,2.5173085305141285e-05
-3.854441820294596e-05,4.11786932090763e-05,-2.6560532205621712e-05,2.5170787921524607e-05
-3.7481026083696634e-05,5.9554535255301744e-05,-2.4735185434110463e-05,2.2392654500436038e-05
-3.6837984225712717e-05,7.832068513380364e-05,-2.5531115170451812e-05,1.8930611986434087e-05
-4.087118213647045e-05,7.867303065722808e-05,-2.5349718271172605e-05,1.8730785086518154e-05
-5.005278580938466e-05,6.779949035262689e-05,-2.161747579521034e-05,2.118236807291396e-05
-5.602544479188509e-05,6.197098991833627e-05,-1.805332249205094e-05,1.909874663397204e-05
-5.411964957602322e-05,6.496566493296996e-05,-1.9114355382043868e-05,1.4469551388174295e-05
-5.040855467086658e-05,7.945356628624722e-05,-2.5800914954743348e-05,1.3779831533611286e-05
-5.298595715430565e-05,9.117201989283785e-05,-3.195278259227052e-05,1.665664058236871e-05
-5.883865014766343e-05,7.828112575225532e-05,-3.1968629627954215e-05,1.8385218936600722e-05
-6.240948277991265e-05,4.4792865082854405e-05,-3.3693559089442715e-05,1.6662595953675918e-05
-6.0745605878764763e-05,2.797477918647928e-06,-3.552514681359753e-05,1.3967585800855886e-05
-5.7940269471146166e-05,-3.6310182622401044e-05,-3.424802343943156e-05,1.4698794075229671e-05
-5.474483623402193e-05,-6.31591392448172e-05,-2.9693845135625452e-05,1.9120972865493968e-05
-4.60701048723422e-05,-7.769398507662117e-05,-2.5727329557412304e-05,1.8260659999214113e-05
-3.817470133071765e-05,-7.55458531784825e-05,-2.463342207192909e-05,1.1161261681991164e-05
-3.221962469979189e-05,-5.808139394503087e-05,-2.449092971801292e-05,9.556942131894175e-06
-2.7741883968701586e-05,-3.056444984395057e-05,-2.2737976905773394e-05,1.3730168575420976e-05
-2.8442371331038885e-05,-8.412426723225508e-06,-2.1629266484524123e-05,1.4742639905307442e-05
-2.942038372566458e-05,4.5570250222226605e-06,-2.3197815608000383e-05,1.1919365533685777e-05
-3.301744436612353e-05,1.5887051631580107e-05,-2.5120312784565613e-05,1.0885212759603746e-05
-3.989659307990223e-05,2.8235683203092776e-05,-2.649191446835175e-05,1.3512732948584016e-05
-4.627109956345521e-05,4.154022826696746e-05,-2.5740446290001273e-05,1.7998363546212204e-05
-4.821631227969192e-05,5.096337918075733e-05,-2.4444438167847693e-05,2.2323723896988668e-05
-4.570169039652683e-05,4.935948163620196e-05,-2.2694213839713484e-05,2.2301428543869406e-05
-4.019053085357882e-05,3.784001091844402e-05,-2.298533399880398e-05,1.914743916131556e-05
-3.474613549769856e-05,2.5213170374627225e-05,-2.390424197074026e-05,1.764443913998548e-05
-3.676526102935895e-05,1.8902166630141437e-05,-2.3391779905068688e-05,2.0048990336363204e-05
-4.802148032467812e-05,1.935748878167942e-05,-2.403101279924158e-05,2.3576963940286078e-05
-6.0076585214119405e-05,2.0395762476255186e-05,-2.541357753216289e-05,2.4383107302128337e-05
-6.221744843060151e-05,1.7375532479491085e-05,-2.4692048100405373e-05,2.324433808098547e-05
-5.857578435097821e-05,9.712064638733864e-06,-2.260060682601761e-05,2.4280352590722032e-05
-5.6015473091974854e-05,3.4553870591480518e-06,-1.9962080841651186e-05,2.8770355129381642e-05
-5.4746058594901115e-05,3.112428998974792e-07,-1.9175866327714175e-05,3.1742278224555776e-05
-5.1361719670239836e-05,-9.802233762457035e-07,-2.2524105588672683e-05,3.2959556847345084e-05
-4.811543840332888e-05,1.107142793443927e-06,-2.4028178813750856e-05,3.622722942964174e-05
-4.5828910515410826e-05,1.8548706066212617e-05,-2.3155811504693702e-05,3.634732638602145e-05
-3.9899266994325444e-05,5.113421502755955e-05,-2.5032126359292306e-05,3.274513073847629e-05
-3.816597381955944e-05,9.443183080293238e-05,-2.760670213319827e-05,2.896209480240941e-05
-5.0317205023020506e-05,0.00013100344222038984,-3.2496111089130864e-05,2.8724756703013554e-05
-6.71604138915427e-05,0.00014738019672222435,-3.553253918653354e-05,3.224332249374129e-05
-7.404497591778636e-05,0.00013615831267088652,-3.238760109525174e-05,3.5146931622875854e-05
-7.168409501900896e-05,0.00010441844642627984,-3.0320197765831836e-05,3.61966340278741e-05
-7.01868484611623e-05,8.671699470141903e-05,-3.148223913740367e-05,3.242114689783193e-05
-6.914223195053637e-05,8.393518510274589e-05,-3.283019759692252e-05,2.904215762100648e-05
-6.936118734301999e-05,7.968304998939857e-05,-3.4975731978192925e-05,2.709735963435378e-05
-7.28252052795142e-05,6.308560114121065e-05,-3.664163887151517e-05,2.402608879492618e-05
-7.244717562571168e-05,2.9799988624290563e-05,-3.7251134926918894e-05,2.200400376750622e-05
-6.764162390027195e-05,-1.1588704182941001e-05,-3.677000859170221e-05,2.4223483706009574e-05
-6.199881318025291e-05,-3.8492802559630945e-05,-3.445263791945763e-05,2.8808331990148872e-05
-5.6843142374418676e-05,-4.339689985499717e-05,-3.55204647348728e-05,2.9622542569995858e-05
-5.2115574362687767e-05,-3.515117714414373e-05,-3.969229510403238e-05,2.6674413675209507e-05
-4.7626166633563116e-05,-1.9365616026334465e-05,-4.19649004470557e-05,2.517669963708613e-05
-4.344246190157719e-05,1.74207343661692e-06,-4.093891766387969e-05,2.55735849350458e-05
-3.897177521139383e-05,2.2256093870964833e-05,-3.7593781598843634e-05,2.707067505980376e-05
-3.3846907172119245e-05,4.3499196181073785e-05,-3.361527342349291e-05,2.8827929781982675e-05
-3.2643154554534703e-05,7.682290015509352e-05,-3.2183485018322244e-05,2.8608970751520246e-05
-3.737149745575152e-05,0.0001110761149902828,-3.3008553145918995e-05,2.7906367904506624e-05
-4.3760959670180455e-05,0.00011925359285669401,-3.260891753598116e-05,2.7519025024957955e-05
-4.811581311514601e-05,0.00010192362242378294,-2.8764363378286362e-05,2.6094647182617337e-05
-5.3519423090619966e-05,8.364466339116916e-05,-2.5190818632836454e-05,2.3463459001504816e-05
-6.077675425331108e-05,7.161926623666659e-05,-2.507110002625268e-05,2.265772309328895e-05
-6.116869917605072e-05,5.6780474551487714e-05,-2.6570951376925223e-05,2.365950604144018e-05
-5.571802466874942e-05,3.195930548827164e-05,-2.5890825781971216e-05,2.3429995053447783e-05
-4.9497186410008e-05,1.5931569578242488e-05,-2.2385060219676234e-05,2.0124209186178632e-05
-4.7735273255966604e-05,2.2532869479618967e-05,-1.707677984086331e-05,1.666672142164316e-05
-4.436229573911987e-05,3.2682029996067286e-05,-1.5920277292025276e-05,1.681486719462555e-05
-3.67359425581526e-05,3.017484414158389e-05,-1.848424471972976e-05,1.735546720738057e-05
-3.5250643122708425e-05,1.9485338270897046e-05,-1.677904583630152e-05,1.5392826753668487e-05
-4.193190034129657e-05,1.1315642950648908e-05,-1.6378058717236854e-05,1.752693424350582e-05
-5.247616718406789e-05,1.3784041584585793e-05,-1.839375363488216e-05,1.876773421827238e-05
-5.907773447688669e-05,1.9666664229589514e-05,-2.037411650235299e-05,1.8204995285486802e-05
-6.262092210818082e-05,2.5396086130058393e-05,-2.1466987163876183e-05,1.9531276848283596e-05
-6.104511703597382e-05,2.9040655135759152e-05,-2.2656444343738258e-05,2.2122338123153895e-05
-5.595862603513524e-05,2.0719720851047896e-05,-2.2636451831203885e-05,2.6202391381957568e-05
-5.189521471038461e-05,4.5591277739731595e-06,-2.3336338927038014e-05,2.725654121604748e-05
-5.146379044163041e-05,-4.418748630996561e-06,-2.4642980861244723e-05,2.5210501917172223e-05
-5.4089599871076643e-05,-4.854381586483214e-06,-2.406468593108002e-05,2.0831312212976627e-05
-5.321941716829315e-05,-9.080675226869062e-06,-2.408901673334185e-05,1.8220576748717576e-05
-4.7479501517955214e-05,-1.5620526028214954e-05,-2.4351968022529036e-05,1.914033964567352e-05
-4.062378502567299e-05,-1.7386853869538754e-05,-2.4913357265177183e-05,2.1498097339645028e-05
-3.772626587306149e-05,-6.2265980886877514e-06,-2.372773269598838e-05,2.088252040266525e-05
-3.866637052851729e-05,1.650816557230428e-05,-2.13417242775904e-05,1.889418672362808e-05
-3.912670217687264e-05,3.729308082256466e-05,-2.081627280858811e-05,2.019826388277579e-05
-3.6550492950482294e-05,4.912415170110762e-05,-2.3752234483254142e-05,2.277005660289433e-05
-3.552476846380159e-05,5.862693797098473e-05,-2.477145790180657e-05,2.3659424186917022e-05
-3.808375186054036e-05,6.445969484047964e-05,-2.283080539200455e-05,2.2590324078919366e-05
-4.12124463764485e-05,6.215715256985277e-05,-2.0813075025216676e-05,1.9193827029084787e-05
-4.1581475670682266e-05,5.794702883576974e-05,-2.0111740013817325e-05,1.4651225683337543e-05
-4.087692286702804e-05,5.509147376869805e-05,-1.994742160604801e-05,1.3870790098735597e-05
-4.292683661333285e-05,6.080741877667606e-05,-1.8077160348184407e-05,1.6625535863568075e-05
-4.6745371946599334e-05,7.349156658165157e-05,-1.817700467654504e-05,1.7551810742588714e-05
-5.03745541209355e-05,7.88209872553125e-05,-1.8700786313274875e-05,1.823089041863568e-05
-4.79137415823061e-05,7.008423563092947e-05,-1.9376266209292226e-05,2.0876901544397697e-05
-3.945116259274073e-05,5.2027586207259446e-05,-2.6491761673241854e-05,2.2076183086028323e-05
-3.560065306373872e-05,3.515928256092593e-05,-2.972128459077794e-05,2.393974682490807e-05
-4.213939610053785e-05,2.323660191905219e-05,-2.552963087509852e-05,2.4723556634853594e-05
-5.123199298395775e-05,2.186788151448127e-05,-2.3913426048238762e-05,2.1987514628563076e-05
-5.662197872879915e-05,2.681531805137638e-05,-2.7682935979100876e-05,1.9708597392309457e-05
-6.021652006893419e-05,2.7364552806830034e-05,-3.3691019780235365e-05,1.760837039910257e-05
-5.861894169356674e-05,2.4524959371774457e-05,-3.442191882641055e-05,1.64845278050052e-05
-5.389576108427718e-05,2.6175195671385154e-05,-2.9805241865688004e-05,1.5755022104713134e-05
-4.8881571274250746e-05,2.8921225748490542e-05,-2.5635945348767564e-05,1.355292260996066e-05
-4.8003639676608145e-05,2.4127430151565932e-05,-2.3173701265477575e-05,1.3128739738021977e-05
-4.715731483884156e-05,1.0858762834686786e-05,-2.048259375442285e-05,1.5034388525236864e-05
-4.073238596902229e-05,-9.167037205770612e-06,-1.7983922589337453e-05,1.6167103240150027e-05
-3.4756838431349024e-05,-2.9121698389644735e-05,-1.7262083929381333e-05,1.411091761838179e-05
-3.2880048820516095e-05,-4.3240259401500225e-05,-2.0101011614315212e-05,1.1308345165161882e-05
-3.291186294518411e-05,-4.9152640713145956e-05,-2.250307625217829e-05,1.2254319699422922e-05
-3.4695192880462855e-05,-4.548100332613103e-05,-2.2361013179761358e-05,1.7093059796025045e-05
-3.8642472645733505e-05,-3.2234594982583076e-05,-2.2491376512334682e-05,2.050995135505218e-05
-3.942719558835961e-05,-1.799270285118837e-05,-2.2376241759047844e-05,2.0932420738972723e-05
-3.823104270850308e-05,-7.108508270903258e-06,-2.0378618501126766e-05,2.1546629795921035e-05
-4.0081060433294624e-05,1.023234744934598e-05,-1.7795913663576357e-05,2.3305987269850448e-05
-4.8557201807852834e-05,4.144937702221796e-05,-1.4699872735945974e-05,2.438346746203024e-05
-5.9601079556159675e-05,7.190719043137506e-05,-1.5183033610810526e-05,2.3570040866616182e-05
-7.06829086993821e-05,8.196437556762248e-05,-2.1830601326655596e-05,2.0794685042346828e-05
-8.269511454273015e-05,7.001277117524296e-05,-2.5178096620948054e-05,1.5420584531966597e-05
-9.277756907977164e-05,4.9696194764692336e-05,-2.268872231070418e-05,1.2034785868308973e-05
-8.833400352159515e-05,3.106786607531831e-05,-2.0594472516677342e-05,1.4419781109609175e-05
-7.139465014915913e-05,2.4983135517686605e-05,-2.066113484033849e-05,1.7008687791530974e-05
-5.760387648479082e-05,3.083631963818334e-05,-2.4379254682571627e-05,1.8988061128766276e-05
-5.5914326367201284e-05,4.249921039445326e-05,-2.9368815376074053e-05,2.25161111302441e-05
-6.073041004128754e-05,5.112596045364626e-05,-2.9880220608902164e-05,2.403867256361991e-05
-5.76086895307526e-05,5.2288825827417895e-05,-2.5849574740277603e-05,2.319938357686624e-05
-4.63440919702407e-05,5.158721614861861e-05,-2.1828795070177875e-05,2.0077759472769685e-05
-3.7964411603752524e-05,5.0383878260618076e-05,-2.2472222553915344e-05,1.881711432361044e-05
-4.184101999271661e-05,6.023205060046166e-05,-2.7107704227091745e-05,2.133431553374976e-05
-4.9217662308365107e-05,7.158424705266953e-05,-3.0462038921541534e-05,2.3257078282767907e-05
-5.3883275541011244e-05,6.606977694900706e-05,-3.119231041637249e-05,2.3514156055171043e-05
-5.885223436052911e-05,4.7069828724488616e-05,-3.0226628950913437e-05,2.3968470486579463e-05
-6.277135253185406e-05,2.8987238692934625e-05,-2.691806548682507e-05,2.7768583095166832e-05
-5.987055192235857e-05,1.6407166185672395e-05,-2.483386742824223e-05,3.2951473258435726e-05
-5.0865524826804176e-05,3.805152573477244e-06,-2.8185151677462272e-05,3.515160642564297e-05
-4.280799112166278e-05,-1.1598025594139472e-05,-3.349758480908349e-05,3.410397039260715e-05
-4.061711297254078e-05,-1.880788113339804e-05,-3.373201980139129e-05,3.416658364585601e-05
-4.118385913898237e-05,-4.438918494997779e-06,-3.0080625947448425e-05,3.5831486457027495e-05
-3.859197749989107e-05,2.33704449783545e-05,-2.796409717120696e-05,3.5895318433176726e-05
-3.6557095882017165e-05,4.397199518280104e-05,-2.7919928470510058e-05,3.495076089166105e-05
-3.9427726733265445e-05,4.9839538405649364e-05,-2.6980276743415743e-05,3.3266725949943066e-05
-4.283586531528272e-05,5.10250247316435e-05,-2.5684474167064764e-05,3.2718668080633506e-05
-4.460622221813537e-05,5.923608841840178e-05,-2.4957751520560123e-05,3.418886990402825e-05
-5.1119885029038414e-05,7.266740431077778e-05,-2.5049024770851247e-05,3.576443486963399e-05
-6.0455880884546787e-05,8.099163096630946e-05,-2.4949893486336805e-05,3.6046054447069764e-05
-6.38414203422144e-05,7.929720595711842e-05,-2.494182626833208e-05,3.6010489566251636e-05
-5.811818118672818e-05,6.762451812392101e-05,-2.756182584562339e-05,3.864190148306079e-05
-4.933141462970525e-05,5.2561485063051805e-05,-2.8407022909959778e-05,4.0637711208546534e-05
-4.590732351061888e-05,3.7624427932314575e-05,-2.4428629330941476e-05,3.838730481220409e-05
-4.562411777442321e-05,1.7488468074589036e-05,-2.1362326151574962e-05,3.446268601692282e-05
-4.46061858383473e-05,-1.535223503879024e-08,-2.3716884243185632e-05,3.2191215723287314e-05
-4.548223296296783e-05,-5.25921586813638e-06,-2.7495550966705196e-05,3.0640760087408125e-05
-4.379157689982094e-05,-2.40760368797055e-06,-2.8020693207508884e-05,2.775279790512286e-05
-4.00766366510652e-05,4.48761738880421e-06,-2.5332790755783208e-05,2.3812308427295648e-05
-3.759788887691684e-05,1.3891455637349281e-05,-2.2511683710035868e-05,1.807651642593555e-05
-3.5856890463037416e-05,2.8577036573551595e-05,-2.3047439754009247e-05,1.4346417628985364e-05
-3.485114575596526e-05,4.059618368046358e-05,-2.5061146516236477e-05,1.7684225895209238e-05
-3.491948518785648e-05,4.3466749048093334e-05,-2.5667741283541545e-05,2.6053459805552848e-05
-3.7330279155867174e-05,3.743076013051905e-05,-2.669904824870173e-05,3.542035847203806e-05
-4.311887823860161e-05,2.676997428352479e-05,-3.140599073958583e-05,3.98326592403464e-05
-5.182827953831293e-05,1.421419256075751e-05,-3.85274579457473e-05,3.4213582694064826e-05
-6.339768879115582e-05,3.7052500374556985e-06,-4.4659420382231474e-05,2.2657257432001643e-05
-7.738385465927422e-05,2.1158189156267326e-06,-4.903706940240227e-05,1.4007281606609467e-05
-8.603685273556039e-05,1.4506820662063546e-05,-5.0593891501193866e-05,1.2487545063777361e-05
-8.499571413267404e-05,4.133275069762021e-05,-4.915977842756547e-05,1.6222165868384764e-05
-7.815986464265734e-05,6.99170195730403e-05,-4.8176603741012514e-05,2.1076719349366613e-05
-6.588376709260046e-05,7.996004569577053e-05,-4.740222357213497e-05,2.3327029339270666e-05
-5.0717993872240186e-05,6.850350473541766e-05,-4.386505679576658e-05,2.3647453417652287e-05
-4.2961357394233346e-05,5.1813643949572e-05,-3.794232179643586e-05,2.2863465346745215e-05
-4.895688107353635e-05,3.7476747820619494e-05,-3.4690190659603104e-05,2.1569365344475955e-05
-5.902286648051813e-05,3.108272358076647e-05,-3.7762663851026446e-05,2.3437716663465835e-05
-5.6877794122556224e-05,3.160535197821446e-05,-4.280321081751026e-05,2.7336609491612762e-05
-5.1400424126768485e-05,3.383009971003048e-05,-4.2671836126828566e-05,2.793076419038698e-05
-4.696261021308601e-05,3.459050276433118e-05,-4.073886157129891e-05,2.6557374440017156e-05
-3.8319303712341934e-05,3.1122519430937245e-05,-3.854533497360535e-05,2.4191262127715163e-05
-3.505003041937016e-05,2.5360321160405874e-05,-3.1897176086204126e-05,2.2426711439038627e-05
-3.868854037136771e-05,2.221541762992274e-05,-2.2900991098140366e-05,2.1529507648665458e-05
-4.331426680437289e-05,1.8391699995845556e-05,-1.6844584024511278e-05,2.0929748643538915e-05
-4.802226976607926e-05,1.7141279386123642e-05,-1.8567665392765775e-05,2.0349458281998523e-05
-5.0103848479921e-05,2.7549882361199707e-05,-1.9242535927332938e-05,1.674462873779703e-05
-4.942169471178204e-05,4.553658072836697e-05,-1.4780319361307193e-05,1.635734770388808e-05
-4.76904351671692e-05,6.130000838311389e-05,-1.0340134394937195e-05,2.012471668422222e-05
-4.631631964002736e-05,6.562054477399215e-05,-1.1260945939284284e-05,2.377305645495653e-05
-4.525000986177474e-05,5.778943159384653e-05,-1.598330527485814e-05,2.4869486878742464e-05
-4.204580909572542e-05,4.927409827359952e-05,-2.0174269593553618e-05,2.3543972929473966e-05
-3.666826887638308e-05,4.715173417935148e-05,-2.0656678316299804e-05,2.247192242066376e-05
-3.3356729545630515e-05,4.867796815233305e-05,-1.8467950212652795e-05,2.425392813165672e-05
-3.655550244729966e-05,4.8440666432725266e-05,-1.7031870811479166e-05,2.7392256015446037e-05
-4.468134284252301e-05,4.264668677933514e-05,-1.65798410307616e-05,2.9662676752195694e-05
-5.0862123316619545e-05,3.048526559723541e-05,-1.6910269550862722e-05,3.1018233130453154e-05
-5.03640367242042e-05,2.0895538909826428e-05,-1.945487929333467e-05,3.0147550205583684e-05
-4.659370824811049e-05,2.2868845917400904e-05,-2.455637149978429e-05,2.70525870291749e-05
-4.255475869285874e-05,3.200515857315622e-05,-2.5577923224773258e-05,2.442967706883792e-05
-4.17593983002007e-05,3.877891504089348e-05,-2.1007957911933772e-05,2.4749484509811737e-05
-4.2745865357574075e-05,3.805941378232092e-05,-1.665069612499792e-05,2.37259991990868e-05
-4.3296313378959894e-05,2.980463432322722e-05,-1.5154891116253566e-05,1.8921537048299797e-05
-4.4645046727964655e-05,2.064024010905996e-05,-1.5402792996610515e-05,1.4502846170216799e-05
-4.272886872058734e-05,1.920184149639681e-05,-2.1272770027280785e-05,1.2811798114853445e-05
-3.481743988231756e-05,2.105975909216795e-05,-2.6237523343297653e-05,1.4458005352935288e-05
-2.9461687518050894e-05,2.1247340555419214e-05,-2.4711795049370266e-05,1.795965181372594e-05
-3.303748235339299e-05,2.5428851586184464e-05,-2.277090425195638e-05,1.7961734556593e-05
-3.632269726949744e-05,3.40071419486776e-05,-2.3447977582691237e-05,1.5348779925261624e-05
-3.5368804674362764e-05,3.4785130992531776e-05,-2.4927332560764626e-05,1.8497159544494934e-05
-3.358758840477094e-05,3.4061562473652884e-05,-2.6122041163034737e-05,2.119370037689805e-05
-3.971900878241286e-05,4.0596743929199874e-05,-2.6423811505082995e-05,2.0659546862589195e-05
-5.561679063248448e-05,4.6473811380565166e-05,-2.4602230041637085e-05,2.3467060600523837e-05
-6.570215919055045e-05,4.994325718143955e-05,-2.077832687064074e-05,2.37714502873132e-05
-6.50383226457052e-05,4.6086533984635025e-05,-1.9489132682792842e-05,2.141115692211315e-05
-5.6944940297398716e-05,3.269554508733563e-05,-1.9537099433364347e-05,1.990159034903627e-05
-5.059561590314843e-05,1.3016969205636997e-05,-1.960819099622313e-05,2.1937332348898053e-05
-5.0815338909160346e-05,-6.027065410307841e-06,-2.1414120055851527e-05,2.1478464987012558e-05
-5.257048178464174e-05,-1.5517713109147735e-05,-2.5402776373084635e-05,1.9658964447444305e-05
-5.072149360785261e-05,-1.4124646440905053e-05,-2.781169860099908e-05,2.0737505110446364e-05
-4.659774276660755e-05,-7.375078439508798e-06,-2.486598168616183e-05,2.2593882022192702e-05
-4.586230716085993e-05,-2.530265419409261e-06,-2.133737871190533e-05,2.1735018890467472e-05
-4.803969932254404e-05,4.652318068565364e-07,-2.03625786525663e-05,1.781964056135621e-05
-5.413303733803332e-05,4.534197614702862e-06,-2.1235528038232587e-05,1.4476077922154218e-05
-6.18688645772636e-05,1.7325084627373144e-05,-2.3162947400123812e-05,1.394769424223341e-05
-6.460794247686863e-05,3.5776309232460335e-05,-2.650243004609365e-05,1.6189678717637435e-05
-5.9351910749683157e-05,5.072914791526273e-05,-2.740339368756395e-05,1.7824871974880807e-05
-5.4524574807146564e-05,5.8369394537294284e-05,-2.4497132471879013e-05,2.031559415627271e-05
-5.484725261339918e-05,5.546985994442366e-05,-2.015276186284609e-05,2.1694333554478362e-05
-5.955864617135376e-05,4.3326857849024236e-05,-1.6943871742114425e-05,2.0561536075547338e-05
-6.604395457543433e-05,3.658582500065677e-05,-1.5092366083990782e-05,2.0208301066304557e-05
-7.213880599010736e-05,4.003429057775065e-05,-1.3720693459617905e-05,2.355366996198427e-05
-7.57193483877927e-05,3.799061960307881e-05,-1.6180902093765326e-05,2.7413123461883515e-05
-7.32632543076761e-05,2.453174784022849e-05,-1.9096440155408345e-05,2.6440526198712178e-05
-6.281534297158942e-05,1.387632164551178e-05,-1.6680842236382887e-05,1.9104785678791814e-05
-4.734103276859969e-05,1.1372385415597819e-05,-1.3946822946309112e-05,1.5043986422824673e-05
-3.3289517887169495e-05,1.0827281585079618e-05,-1.4998370716057252e-05,2.0966021111235023e-05
-2.3986734959180467e-05,1.4479186575044878e-05,-1.734233410388697e-05,2.662626502569765e-05
-2.8428426958271302e-05,1.9939996491302736e-05,-2.073537507385481e-05,2.773564301605802e-05
-3.707351061166264e-05,2.492953535693232e-05,-2.3957647499628365e-05,2.8186970666865818e-05
-4.007084862678312e-05,2.9453214665409178e-05,-2.3321344997384585e-05,2.55467548413435e-05
-4.4962598622078076e-05,2.870927710318938e-05,-2.274858343298547e-05,2.1655680029653013e-05
-5.284220242174342e-05,2.0349747501313686e-05,-2.3079255697666667e-05,1.969910408661235e-05
-5.896382572245784e-05,1.1300769983790815e-05,-2.418207805021666e-05,2.2387455828720704e-05
-6.041828964953311e-05,6.888494681334123e-06,-2.373901952523738e-05,2.46642066485947e-05
-6.202842632774264e-05,9.592191418050788e-06,-2.346155815757811e-05,2.569102252891753e-05
-6.815945380367339e-05,1.5150085346249398e-05,-2.630368180689402e-05,2.6422385417390615e-05
-6.916419806657359e-05,2.1570625904132612e-05,-2.9466094929375686e-05,2.5492026907159016e-05
-6.173245492391288e-05,2.7949583454756066e-05,-2.99999192066025e-05,2.383159880992025e-05
-5.9314123063813895e-05,3.709943484864198e-05,-2.8329463020781986e-05,2.4558214136050083e-05
-6.438235868699849e-05,4.986365820514038e-05,-2.7276761102257296e-05,2.8596770789590664e-05
-6.657693302258849e-05,6.352017953759059e-05,-2.8510079573607072e-05,3.112700505880639e-05
-6.463929457822815e-05,7.545707921963185e-05,-3.317985829198733e-05,3.142766217933968e-05
-6.543689232785255e-05,7.956244371598586e-05,-3.706295319716446e-05,2.9934619306004606e-05
-7.010527042439207e-05,7.50306571717374e-05,-3.627213300205767e-05,2.8581740480149165e-05
-7.422794442391023e-05,7.032668509054929e-05,-3.415339961065911e-05,2.6268184228683822e-05
-7.23920893506147e-05,6.852029036963359e-05,-3.412764999666251e-05,2.5956835088436492e-05
-6.783402932342142e-05,6.659718201262876e-05,-3.234835821785964e-05,3.093350096605718e-05
-6.160990596981719e-05,6.908887735335156e-05,-2.7544829208636656e-05,3.620093775680289e-05
-5.315527960192412e-05,7.20318712410517e-05,-2.315546225872822e-05,3.6063516745343804e-05
-4.4048618292436004e-05,6.280813977355137e-05,-2.0351706552901305e-05,3.090649624937214e-05
-3.737360384548083e-05,3.5297463909955695e-05,-1.716412225505337e-05,2.587976814538706e-05
-3.170334457536228e-05,2.0999113985453732e-06,-1.13307723950129e-05,2.552935984567739e-05
-1.8862778233597055e-05,-1.2365894690447021e-05,-4.104935669602128e-06,2.8270689654164016e-05
-3.906082383764442e-06,-3.335689200412162e-07,-3.3052376693376573e-06,3.0044669983908534e-05
7.23673156244331e-06,1.4778863260289654e-05,-1.4012973679200513e-06,2.763140400929842e-05
1.188671012641862e-05,2.3837648768676445e-05,3.825873591267737e-06,2.8568409106810577e-05
1.3308695997693576e-05,3.305922291474417e-05,7.547820587205933e-06,3.48437788488809e-05
1.3239357940619811e-05,4.196536974632181e-05,1.0740898687799927e-05,4.195249857730232e-05
6.609406682400731e-06,5.109599806019105e-05,1.014796089293668e-05,4.5003929699305445e-05
-5.667070581694134e-06,5.56741542823147e-05,5.619761850539362e-06,4.6845769247738644e-05
-1.2959410014445893e-05,5.0544145778985694e-05,2.4708183445909526e-06,5.165443872101605e-05
