-2.57931442320114e-05,-6.822586146881804e-05,7.018274118308909e-06,2.8053027563146316e-05
-2.0574949303409085e-05,-9.164888615487143e-05,5.7353295233042445e-06,4.329257717472501e-05
-1.4207367712515406e-05,-5.928199607296847e-05,3.847693733405322e-06,5.656510256812908e-05
-1.1606854059209581e-05,1.7560121534643258e-07,9.763438129084534e-07,6.249845318961889e-05
-1.76499379449524e-05,4.350801100372337e-05,-1.468571781515493e-06,6.513181870104745e-05
-2.6065170459332876e-05,6.692468014080077e-05,-2.8289700821915176e-06,6.791120540583506e-05
-2.8904512873850763e-05,8.913317287806422e-05,-5.1209858611400705e-06,6.903095345478505e-05
-2.4768376533756964e-05,8.288009121315554e-05,-9.763435627974104e-06,6.567554373759776e-05
-2.1295649275998585e-05,1.4952747733332217e-05,-1.4961679880798329e-05,6.260936061153188e-05
-2.4059459974523634e-05,-7.255015225382522e-05,-1.9371329472051002e-05,6.457178096752614e-05
-2.9146482120268047e-05,-0.00010612002370180562,-2.104748273268342e-05,6.873565871501341e-05
-3.240511068725027e-05,-5.636252535623498e-05,-2.019594467128627e-05,7.177057705121115e-05
-3.2916686905082315e-05,3.738907616934739e-05,-1.8280852600582875e-05,7.001719495747238e-05
-3.168521652696654e-05,0.00010865593503694981,-1.5927858839859255e-05,6.20743230683729e-05
-2.994639908138197e-05,0.00013925056555308402,-1.596691618033219e-05,5.465383583214134e-05
-2.732904613367282e-05,0.00014779488265048712,-2.029588540608529e-05,4.978341166861355e-05
-2.3048001821734942e-05,0.00013623700942844152,-2.4984427000163123e-05,4.610653923009522e-05
-2.3962898922036402e-05,9.821058483794332e-05,-2.1750121959485114e-05,4.588972660712898e-05
-2.8943921279278584e-05,4.942566738463938e-05,-1.0873311111936346e-05,5.0066024414263666e-05
-2.9636203180416487e-05,1.9340843209647574e-05,-4.0508571146347094e-06,5.657281872117892e-05
-2.9009604986640625e-05,3.4873467029683525e-06,-2.4164853584807133e-06,5.848418004461564e-05
-3.068947626161389e-05,-3.0254315788624808e-05,-1.8734310742729576e-06,5.473974670167081e-05
-3.22696432704106e-05,-6.698621291434392e-05,-2.799033836708986e-06,5.069011604064144e-05
-2.606881025712937e-05,-8.103453001240268e-05,-2.992974714288721e-06,4.8363835958298296e-05
-2.0289351596147753e-05,-6.965661305002868e-05,-1.8276751916346257e-06,4.4570628233486786e-05
-1.94174972421024e-05,-6.114382267696783e-05,1.770636799847125e-06,4.246885146130808e-05
-1.9415972928982228e-05,-6.112083065090701e-05,4.135506515012821e-06,4.729298598249443e-05
-2.086944914481137e-05,-5.810323636978865e-05,2.435801889077993e-06,5.365920878830366e-05
-2.5995002943091094e-05,-4.6113465941743925e-05,3.41351622523689e-08,5.877780495211482e-05
-3.008398925885558e-05,-2.7996342396363616e-05,-2.0224181298544863e-06,6.461416342062876e-05
-2.8345852115307935e-05,-1.0084053428727202e-05,-4.766561232827371e-06,6.837447290308774e-05
-2.497421701264102e-05,1.2044276445521973e-05,-6.3681536630610935e-06,6.961398321436718e-05
-2.2037991584511474e-05,3.9314381865551695e-05,-5.096437689644517e-06,7.06388455000706e-05
-2.096368007187266e-05,5.964979209238663e-05,-2.3918178158055525e-06,6.982887134654447e-05
-2.2756039470550604e-05,6.0724127251887694e-05,-1.5747732504678424e-06,6.742435652995482e-05
-2.5157485652016476e-05,5.482899723574519e-05,-2.2585224996873876e-06,6.523131742142141e-05
-2.569475691416301e-05,5.8042493037646636e-05,-2.5607587303966284e-06,6.38903075014241e-05
-3.071127866860479e-05,6.556415610248223e-05,-4.677327524404973e-06,6.2997751228977e-05
-3.9756163459969684e-05,5.6526652770116925e-05,-7.465267572115408e-06,6.217914051376283e-05
-4.258400804246776e-05,4.207525489619002e-05,-1.0094984645547811e-05,6.200408097356558e-05
-3.552367343218066e-05,3.3252777939196676e-05,-1.1907986845471896e-05,5.946429155301303e-05
-3.19379469146952e-05,3.504505366436206e-05,-1.0661012311175e-05,5.613670145976357e-05
-3.434758764342405e-05,4.227243334753439e-05,-1.0811239917529747e-05,5.599650103249587e-05
-2.730453161348123e-05,3.835701500065625e-05,-1.3315403521119151e-05,6.128634413471445e-05
-2.1302732420735992e-05,1.7251026292797178e-05,-1.4353717233461794e-05,6.528418452944607e-05
-3.0364541089511476e-05,-4.738306870422093e-06,-1.47325636135065e-05,6.010293509461917e-05
-4.114646799280308e-05,-3.72352860722458e-06,-1.4268684935814235e-05,5.763173248851672e-05
-4.6059027226874605e-05,1.3613223927677609e-05,-1.2561560652102344e-05,6.214324821485206e-05
-4.449722109711729e-05,3.6262998037273064e-05,-7.53238282413804e-06,6.675111217191443e-05
-4.058960985275917e-05,5.4631262173643336e-05,-3.5441089494270273e-06,6.903100438648835e-05
-3.400200876058079e-05,5.426656571216881e-05,-4.8677097765903454e-06,6.695101910736412e-05
-3.1351733923656866e-05,4.590153184835799e-05,-5.3275521167961415e-06,6.11995201325044e-05
-3.424242459004745e-05,3.829444540315308e-05,-3.833741629932774e-06,5.633685941575095e-05
-3.858634227071889e-05,3.0784161936026067e-05,-3.181996817147592e-06,5.649299419019371e-05
-3.9775077311787754e-05,2.0968889657524414e-05,-2.8680635750788497e-06,6.0217949794605374e-05
-3.423223097342998e-05,6.573261089215521e-06,-1.843050995375961e-06,6.288188160397112e-05
-3.067199213546701e-05,-7.011179150140379e-06,-2.5495910449535586e-06,6.394715455826372e-05
-3.2384967198595405e-05,-1.167045411420986e-05,-5.2466007218754385e-06,6.245281110750511e-05
-3.601844946388155e-05,-1.0049402590084355e-05,-7.276412816281663e-06,6.002448935760185e-05
-3.686113632284105e-05,-4.981999154551886e-06,-6.795859007979743e-06,5.971587961539626e-05
-3.45239277521614e-05,6.84869019096368e-06,-3.5243829188402742e-06,5.8398549299454316e-05
-2.9501212338800542e-05,2.2999380234978162e-05,-4.4774486696042004e-07,5.442448309622705e-05
-2.574775498942472e-05,3.746939546545036e-05,-2.0868333194812294e-06,5.193401011638343e-05
-2.5130500944214873e-05,4.371930845081806e-05,-7.74320687924046e-06,5.364247044781223e-05
-2.9053046091576107e-05,4.3879495933651924e-05,-1.5342351616709493e-05,5.5898013670230284e-05
-3.427991396165453e-05,5.2684023103211075e-05,-2.219887392129749e-05,5.8598769101081416e-05
-3.3637392334640026e-05,6.749117164872587e-05,-2.563742600614205e-05,6.293692422332242e-05
-2.817633139784448e-05,6.059195220586844e-05,-2.8463931812439114e-05,6.607398245250806e-05
-2.8623846446862444e-05,3.897029091604054e-05,-3.482784086372703e-05,6.676316843368113e-05
-3.0022518330952153e-05,2.986901563417632e-05,-4.0591516153654084e-05,6.590747216250747e-05
-2.9173581424402073e-05,4.11292930948548e-05,-4.093903044122271e-05,6.62734528305009e-05
-3.1450468668481335e-05,6.105266947997734e-05,-4.068397538503632e-05,6.552989361807704e-05
-3.216030745534226e-05,7.455655577359721e-05,-3.8458878407254815e-05,5.845113628311083e-05
-2.9375696612987667e-05,6.994578870944679e-05,-3.767793168663047e-05,5.087220051791519e-05
-2.754011620709207e-05,6.32200826657936e-05,-3.9379316149279475e-05,4.82635477965232e-05
-2.5281618945882656e-05,6.54703180771321e-05,-4.0261900721816346e-05,4.943644307786599e-05
-2.2097858163760975e-05,6.363039574353024e-05,-4.989693115931004e-05,5.0589063903316855e-05
-1.939242247317452e-05,5.691939441021532e-05,-6.939798913663253e-05,5.126830728841014e-05
-1.5123683624551632e-05,3.902737080352381e-05,-8.350009738933295e-05,5.382073140935972e-05
-1.200132737722015e-05,-9.777878403838258e-06,-8.039762906264514e-05,5.626485653920099e-05
-1.4893793377268594e-05,-7.003756036283448e-05,-6.108606612542644e-05,5.61789347557351e-05
-1.8936327251140028e-05,-8.502998389303684e-05,-3.6419936805032194e-05,5.3639123507309705e-05
-2.036090700130444e-05,-5.0806120270863175e-05,-1.2960453204868827e-05,5.011212488170713e-05
-2.197550747951027e-05,-1.1287069355603307e-05,8.050555152294692e-06,4.799654197995551e-05
-2.122246405633632e-05,2.1737093902629567e-06,2.1908517737756483e-05,4.883795554633252e-05
-1.8249014829052612e-05,-9.148878234555013e-06,2.8330769055173732e-05,5.228418740443885e-05
-1.5696998161729425e-05,-2.2626123609370552e-05,3.306966391392052e-05,5.733369107474573e-05
-1.4552330867445562e-05,-1.8677234038477764e-05,4.091304799658246e-05,6.006266994518228e-05
-1.4333048056869302e-05,3.5064467738266103e-06,4.574118065647781e-05,5.8962617913493887e-05
-1.452260676160222e-05,2.8823660613852553e-05,4.1789691749727353e-05,5.592962770606391e-05
-1.5849849660298787e-05,4.218799585942179e-05,3.248364009778015e-05,5.470119867823087e-05
-2.172507629438769e-05,3.7903817428741604e-05,2.438304727547802e-05,5.478930688695982e-05
-2.6123820134671405e-05,2.405499981250614e-05,2.198764559580013e-05,5.3154635679675266e-05
-2.4253626179415733e-05,6.901204415044049e-06,2.312016840733122e-05,5.168261122889817e-05
-2.0139737898716703e-05,-1.1349359738233034e-05,2.076848249998875e-05,5.318716284818947e-05
-1.5187059034360573e-05,-1.679213710303884e-05,1.3867311281501316e-05,5.7298882893519476e-05
-1.3483662769431248e-05,-5.865218554390594e-06,6.818377187300939e-06,5.9991849411744624e-05
-1.8589507817523554e-05,8.067209819273558e-06,1.6912978253458277e-06,6.132051203167066e-05
-2.181620948249474e-05,1.2121456165914424e-05,1.6042936294979881e-06,5.987093027215451e-05
-2.2519991034641862e-05,7.6211617852095515e-06,-6.297812404909564e-08,5.405719639384188e-05
-2.531311292841565e-05,1.1493577403598465e-05,-7.1894160100782756e-06,4.932773663313128e-05
-2.4501654479536228e-05,2.4307224521180615e-05,-1.4484182429441717e-05,4.7135115892160684e-05
-2.0526360458461568e-05,3.608666156651452e-05,-1.9256329323980026e-05,4.679272387875244e-05
-1.9372322640265338e-05,3.68165310646873e-05,-1.833499118220061e-05,4.8223460908047855e-05
-1.955681000254117e-05,3.23906060657464e-05,-1.626752782613039e-05,4.9757542001316324e-05
-1.7778706023818813e-05,3.9069207559805363e-05,-1.516358861408662e-05,4.9617265176493675e-05
-1.61596508405637e-05,5.545065869227983e-05,-1.360546320938738e-05,4.985605482943356e-05
-1.6868851162143983e-05,7.087508129188791e-05,-1.1240209460083861e-05,5.1377781346673146e-05
-1.8177095626015216e-05,7.480279600713402e-05,-9.568204404786229e-06,5.2118226449238136e-05
-1.7476484572398476e-05,6.776896771043539e-05,-6.960063274163986e-06,5.3741983720101416e-05
-1.6021413102862425e-05,5.886362123419531e-05,-4.7148105295491405e-06,5.526492896024138e-05
-1.5568433809676208e-05,5.6336179113714024e-05,-5.234128821030026e-06,5.608529318124056e-05
-1.5273328244802542e-05,5.687779776053503e-05,-5.019056970922975e-06,5.579740900429897e-05
-1.5399888070533052e-05,5.702301859855652e-05,-3.0780720408074558e-06,5.4468546295538545e-05
-1.8488552086637355e-05,5.723321737605147e-05,-2.0022700937261106e-06,5.131030411575921e-05
-2.21876962314127e-05,5.416522253653966e-05,-3.6449736739996297e-07,4.7458535846089944e-05
-2.435240094200708e-05,4.379108577268198e-05,2.2986750991549343e-06,4.730536602437496e-05
-2.700572986213956e-05,3.327960439492017e-05,3.3693841032800265e-06,5.217269790591672e-05
-2.808674435073044e-05,3.235135227441788e-05,4.3996642489219084e-06,5.453058111015707e-05
-2.5866631403914653e-05,3.628116610343568e-05,1.6282973547276924e-06,5.2812665671808645e-05
-2.508238139853347e-05,3.38076388288755e-05,-2.6149896257265937e-06,5.365370088838972e-05
-2.67387385974871e-05,2.543292794143781e-05,-6.006443072692491e-06,5.618137583951466e-05
-2.468407001288142e-05,2.4528411813662387e-05,-1.1039786841138266e-05,5.984710151096806e-05
-1.999206142500043e-05,3.196347824996337e-05,-1.7039379599737003e-05,6.435294199036434e-05
-1.9642460756585933e-05,2.9635268219863065e-05,-3.417640982661396e-05,6.688397843390703e-05
-2.4650124032632448e-05,9.348273124487605e-06,-5.522727224160917e-05,6.618605402763933e-05
-3.0816241633147e-05,-1.792578405002132e-05,-5.835167030454613e-05,6.690579903079197e-05
-3.149179246975109e-05,-2.9526032449211925e-05,-4.649988477467559e-05,6.471516826422885e-05
-3.0042116122785956e-05,-2.2481055566458963e-05,-3.0008577596163377e-05,6.0180886066518724e-05
-3.2044496037997305e-05,-8.219349183491431e-06,-1.2437018085620366e-05,6.081572064431384e-05
-3.328630918986164e-05,3.864055997837568e-06,6.8733365878870245e-06,6.337304512271658e-05
-3.184619708918035e-05,9.87850216915831e-06,1.7539736290927976e-05,6.352117634378374e-05
-3.1402272725244984e-05,1.796501237549819e-05,2.0613997548935004e-05,6.120437319623306e-05
-3.1401545129483566e-05,2.8253474738448858e-05,2.1997277144691907e-05,6.156462040962651e-05
-3.1171828595688567e-05,4.2655814468162134e-05,2.0274834241718054e-05,6.508152728201821e-05
-3.2966734579531476e-05,5.890826287213713e-05,1.4347545402415562e-05,6.848912016721442e-05
-3.521862527122721e-05,7.393203122774139e-05,7.428212938975776e-06,7.117534551071003e-05
-3.443857713136822e-05,8.189396612579003e-05,2.961263817269355e-06,7.318162533920258e-05
-3.0913419323042035e-05,8.308654651045799e-05,5.196926053940842e-07,7.398349407594651e-05
-2.833756479958538e-05,7.792639371473342e-05,-7.990487347342423e-07,7.281755824806169e-05
-2.700779623410199e-05,6.967010267544538e-05,-2.3843388134991983e-06,7.311467197723687e-05
-2.361050974286627e-05,5.862619218532927e-05,-2.095539684887626e-06,7.593753252876922e-05
-1.8557291696197353e-05,4.4349359086481854e-05,-3.095688271059771e-06,7.673562504351139e-05
-1.6949110431596637e-05,3.215045580873266e-05,-7.742794878140558e-06,7.0552559918724e-05
-1.9231807527830824e-05,2.04004372790223e-05,-1.30969974634354e-05,6.343409040709957e-05
-2.242386108264327e-05,1.30904827528866e-05,-1.3320563994057011e-05,6.372314965119585e-05
-2.348431371501647e-05,1.268852338398574e-05,-1.1839615581266116e-05,6.615183519897982e-05
-2.5138764613075182e-05,9.834604497882538e-06,-1.4519883734465111e-05,6.64283725200221e-05
-3.120732071693055e-05,1.6749454516684636e-06,-1.7132540961029008e-05,6.616044993279502e-05
-3.629365892265923e-05,-2.458962853779667e-06,-1.810868525353726e-05,6.594374281121418e-05
-3.497290890663862e-05,2.0977370240871096e-06,-2.281542037962936e-05,6.379331171046942e-05
-3.366809687577188e-05,7.837115845177323e-06,-2.748674523900263e-05,6.114854477345943e-05
-3.769709655898623e-05,1.3425176803139038e-05,-3.093964551226236e-05,6.464077887358144e-05
-4.205612640362233e-05,1.1664142220979556e-05,-3.1876374123385176e-05,6.759702228009701e-05
-4.331070158514194e-05,7.972133062139619e-06,-3.235558688174933e-05,6.569311517523602e-05
-4.053988232044503e-05,1.7129434127127752e-05,-3.4875185519922525e-05,6.450564978877082e-05
-3.4919790778076276e-05,1.9522005459293723e-05,-3.643355012172833e-05,6.258690700633451e-05
-2.7619038519333117e-05,1.267950028704945e-05,-3.230767106288113e-05,6.295388448052108e-05
-2.1476929759955965e-05,7.130825451895362e-06,-2.536649481044151e-05,6.527415825985372e-05
-1.795273055904545e-05,1.5532021279796027e-05,-2.1700718207284808e-05,6.818737892899662e-05
-1.5533794794464484e-05,2.153868081222754e-05,-1.940346191986464e-05,7.133273902582005e-05
-1.5873749362071976e-05,1.9944745872635394e-05,-1.573920962982811e-05,7.088152779033408e-05
-1.6987527487799525e-05,2.2893409550306387e-05,-1.1440077287261374e-05,6.482920434791595e-05
-1.646042801439762e-05,2.6590929337544367e-05,-9.149246579909232e-06,5.9555357438512146e-05
-1.668421464273706e-05,2.563659472798463e-05,-7.1466392910224386e-06,5.8801542763831094e-05
-2.1086319975438528e-05,2.1635254597640596e-05,-4.391247784951702e-06,5.648964724969119e-05
-2.8038115488016047e-05,1.698197957011871e-05,-1.726479155195193e-07,5.4010564781492576e-05
-3.147836105199531e-05,1.5561761756544e-05,4.2530291466391645e-06,5.527872053789906e-05
-2.9804077712469734e-05,2.2236339646042325e-05,7.258510322571965e-06,5.7101904531009495e-05
-2.6517851438256912e-05,2.5179620934068225e-05,9.20148886507377e-06,5.793960372102447e-05
-2.364023748668842e-05,1.9105988030787557e-05,9.803608008951414e-06,5.884995698579587e-05
-2.039976061496418e-05,1.630036967981141e-05,8.381815860047936e-06,5.986665564705618e-05
-1.849391992436722e-05,2.310304989805445e-05,6.578984539373778e-06,6.271651363931596e-05
-2.020674764935393e-05,2.8588348868652247e-05,3.5609104998002294e-06,6.322086846921593e-05
-2.3602524379384704e-05,3.220994767616503e-05,-1.8724158223903942e-08,5.92984797549434e-05
-2.5767285478650592e-05,2.7474887247080915e-05,-2.098076720358222e-06,5.599506403086707e-05
-2.6110281396540813e-05,1.284250811295351e-05,-3.0887231332599185e-06,5.4665764764649794e-05
-2.8433143597794697e-05,9.259078979084734e-06,-5.45546026842203e-06,5.6639033573446795e-05
-3.1249761377694085e-05,2.2283926227828488e-05,-3.913934506272199e-06,6.346071313600987e-05
-2.8986680263187736e-05,2.503010728105437e-05,-6.716240932291839e-07,6.550984107889235e-05
-2.7448417313280515e-05,2.214219784946181e-05,3.082711685920003e-08,6.37006014585495e-05
-2.8944947189302184e-05,2.489842336217407e-05,5.159697593626333e-07,6.164893420645967e-05
-3.242210004827939e-05,1.7586726244189776e-05,-3.2354810173274018e-06,5.545743988477625e-05
-3.717595245689154e-05,-4.846748652198585e-06,-8.379874998354353e-06,5.1722832722589374e-05
-3.722067776834592e-05,-2.1741780074080452e-05,-1.3690134437638335e-05,5.055184738012031e-05
-3.302232289570384e-05,-1.8742526663118042e-05,-1.8652004655450583e-05,4.8412970500066876e-05
-2.8650076274061576e-05,-8.85741712863819e-07,-2.079994919768069e-05,4.841658301302232e-05
-2.5221861505997367e-05,1.8849603293347172e-05,-2.1152593035367317e-05,5.259644967736676e-05
-2.3047794456942938e-05,3.334165012347512e-05,-1.9154018445988186e-05,5.457340375869535e-05
-2.5062534405151382e-05,4.410183464642614e-05,-1.5846515452722088e-05,5.331439388100989e-05
-3.173107324982993e-05,5.1774557505268604e-05,-1.4135377568891272e-05,5.271018744679168e-05
-3.504964479361661e-05,6.743895210092887e-05,-1.404650629410753e-05,5.494972356245853e-05
-3.291299435659312e-05,8.760650234762579e-05,-1.430079555575503e-05,5.699460962205194e-05
-3.2903190003708005e-05,9.187679825117812e-05,-1.346806857327465e-05,5.755183519795537e-05
-3.5807170206680894e-05,7.202696724561974e-05,-1.1985890523646958e-05,6.0977909015491605e-05
-3.786242814385332e-05,3.534092684276402e-05,-1.1420873306633439e-05,6.43325038254261e-05
-3.537920201779343e-05,-5.396444521466037e-06,-1.3450335245579481e-05,6.4121100876946e-05
-3.0237211831263267e-05,-3.9075086533557624e-05,-1.72447798831854e-05,6.0912836488569155e-05
-2.8738413675455377e-05,-5.1863069529645145e-05,-1.6472680727019906e-05,5.8193076256429777e-05
-2.7848691388498992e-05,-4.042099681100808e-05,-8.1655716712703e-06,5.5970438552321866e-05
-2.638240039232187e-05,-2.03958206839161e-05,-1.0981908644680516e-06,5.448372758110054e-05
-2.6408515623188578e-05,-5.982817128824536e-06,-4.950450147589436e-07,5.377475099521689e-05
-2.7139371013618074e-05,8.975753189588431e-07,-5.203440522905112e-08,5.544293162529357e-05
-2.871554170269519e-05,2.0137835235800594e-05,8.030761478039494e-07,5.927389065618627e-05
-3.119665416306816e-05,6.256965571083128e-05,-1.9362103103048867e-06,6.017139457981102e-05
-3.1850529921939597e-05,0.000122083758469671,-4.1376283661520574e-06,5.484806388267316e-05
-2.5511393687338568e-05,0.00016755676188040525,-4.767471182276495e-06,4.9779016990214586e-05
-2.2038788301870227e-05,0.00017395407485309988,-1.0805390957102645e-05,5.214485645410605e-05
-2.5752657165867276e-05,0.00014358144835568964,-2.056829907814972e-05,5.500922998180613e-05
-3.0843730201013386e-05,8.74330653459765e-05,-2.6644147510523908e-05,5.198532380745746e-05
-3.3735490433173254e-05,3.0067576517467387e-05,-2.754112210823223e-05,4.81866518384777e-05
-3.284774720668793e-05,-1.0073068551719189e-05,-2.4607737941551022e-05,4.687960972660221e-05
-3.346675293869339e-05,-1.4000564078742173e-05,-2.1204654331086203e-05,4.510313010541722e-05
-3.4539854823378846e-05,1.675446765148081e-05,-1.8926963093690574e-05,4.54876062576659e-05
-3.588828622014262e-05,5.6117358326446265e-05,-1.4182905943016522e-05,4.7567351430188864e-05
-3.880325675709173e-05,8.86116104084067e-05,-8.420306585321669e-06,5.23312519362662e-05
-4.203810021863319e-05,0.00010264988668495789,-5.295483788358979e-06,5.757027611252852e-05
-3.9149974327301607e-05,8.644823537906632e-05,-2.68196640718088e-06,5.9827416407642886e-05
-3.0081344448262826e-05,6.015354665578343e-05,3.3812185051829147e-07,6.258188659558073e-05
-2.4866138119250536e-05,6.015259714331478e-05,-1.2870591490354855e-06,6.64112958475016e-05
-2.7899690394406207e-05,8.585261093685403e-05,-5.3521284826274496e-06,6.68602588120848e-05
-3.2680603908374906e-05,0.00010648056195350364,-8.500126568833366e-06,6.080283492337912e-05
-3.097021544817835e-05,0.00010161264799535275,-1.0672612916096114e-05,5.2648258133558556e-05
-2.3442600650014356e-05,6.98977819411084e-05,-1.545754275866784e-05,4.881346831098199e-05
-1.5289757357095368e-05,1.8678168999031186e-05,-3.0464048904832453e-05,5.067572055850178e-05
-1.0275830391037744e-05,-3.9239126635948196e-05,-5.4248401283985004e-05,5.095372398500331e-05
-7.573080893052975e-06,-7.835157884983346e-05,-6.882903107907623e-05,4.877557512372732e-05
-5.642641554004513e-06,-7.69632970332168e-05,-6.295600906014442e-05,4.777657886734232e-05
-7.98980090621626e-06,-5.239652455202304e-05,-4.739371797768399e-05,5.02086550113745e-05
-1.3069127817288972e-05,-3.7844987673452124e-05,-3.0340224839164875e-05,5.594944377662614e-05
-1.4932204976503272e-05,-4.403761340654455e-05,-1.1264506611041725e-05,5.9167428844375536e-05
-1.3382024008024018e-05,-5.577590491157025e-05,7.4872436925943475e-06,5.6202607083832845e-05
-1.2848453479819e-05,-3.768788155866787e-05,2.2702590285916813e-05,5.3311188821680844e-05
-1.6059497284004465e-05,7.449503300449578e-06,3.0053652153583243e-05,5.6746372138150036e-05
-1.9054894437431358e-05,1.4433189789997414e-05,2.9851036742911674e-05,5.8879810239886865e-05
-2.2149044525576755e-05,-3.0806706490693614e-05,3.042978460143786e-05,5.547574983211234e-05
-2.4749628209974617e-05,-6.561976624652743e-05,2.7645437512546778e-05,5.35390863660723e-05
-2.6829648049897514e-05,-5.258048258838244e-05,2.0538727767416276e-05,5.4138832638273016e-05
-2.9029533834545873e-05,-1.9320161300129257e-05,1.2380002772260923e-05,5.596687697106972e-05
-2.9955928766867146e-05,9.36604556045495e-06,2.818977236529463e-06,5.8993093261960894e-05
-2.7834170396090485e-05,2.428510197205469e-05,-4.184149020147743e-06,6.439912249334157e-05
-2.3673881514696404e-05,1.6197067452594638e-05,-7.386161087197252e-06,6.911406671861187e-05
-2.1836633095517755e-05,-2.78448987955926e-06,-8.46222337713698e-06,7.05951388226822e-05
-2.0925323042320088e-05,-2.3585262169945054e-05,-8.34123511594953e-06,7.008886313997209e-05
-1.9385151972528547e-05,-4.99287161801476e-05,-7.789219125697855e-06,6.773955101380125e-05
-1.8548371372162364e-05,-6.932962423888966e-05,-6.428629603760783e-06,6.629589915974066e-05
-2.080448393826373e-05,-5.803231033496559e-05,-6.417788426915649e-06,6.236134504433721e-05
-2.4371647668886e-05,-2.482109994161874e-05,-7.86163036536891e-06,5.797970516141504e-05
-2.7071742806583643e-05,7.5566358646028675e-06,-6.725176717736758e-06,6.0333382862154394e-05
-2.870448042813223e-05,2.418770600343123e-05,-3.459953404671978e-06,6.782291166018695e-05
-3.0391896871151403e-05,2.333697375433985e-05,-6.234500688151456e-06,7.009007822489366e-05
-3.106961230514571e-05,1.4594322237826418e-05,-1.3859753380529583e-05,6.44687534077093e-05
-2.8739186745951883e-05,1.1248141163378023e-05,-1.653070648899302e-05,6.111776019679382e-05
-2.8010532332700677e-05,1.533667636977043e-05,-1.6004432836780325e-05,6.345638394122943e-05
-3.18133388645947e-05,2.212772233178839e-05,-1.4226480743673164e-05,6.702146492898464e-05
-3.307068254798651e-05,3.319001916679554e-05,-1.1828627066279296e-05,7.0047979534138e-05
-2.849540760507807e-05,4.2222876800224185e-05,-1.1417977475502994e-05,7.146055577322841e-05
-2.3733675334369764e-05,4.3701915274141356e-05,-9.317576768808067e-06,6.689896690659225e-05
-1.954941762960516e-05,3.982930502388626e-05,-6.97126415616367e-06,6.081373430788517e-05
-1.9935769159928896e-05,3.537688098731451e-05,-6.54478981232387e-06,5.8976856962544844e-05
-1.9823213733616285e-05,3.484524131636135e-05,-5.682486516889185e-06,5.9951958974124864e-05
-1.3827539987687487e-05,3.2605075830360875e-05,-7.879027180024423e-06,6.074692646507174e-05
-1.136501396103995e-05,3.072909385082312e-05,-1.322496791544836e-05,5.787808549939655e-05
-1.645228621782735e-05,3.822895814664662e-05,-1.4550642845279071e-05,5.535596574191004e-05
-2.4214015866164118e-05,4.892820288660005e-05,-1.2366773262328934e-05,5.3425606893142685e-05
-2.5899182219291106e-05,4.9118803872261196e-05,-1.4888554687786382e-05,5.3222862334223464e-05
-2.40854005824076e-05,4.528845238382928e-05,-1.6697349565220065e-05,5.494188008015044e-05
-2.2888749299454503e-05,4.613562487065792e-05,-1.4457859833783004e-05,5.394762411015108e-05
-2.266332376166247e-05,4.3227573769399896e-05,-1.436618094885489e-05,5.217727448325604e-05
-2.4103737814584747e-05,4.040344356326386e-05,-1.629158214200288e-05,5.337629045243375e-05
-2.779010719677899e-05,4.1606945160310715e-05,-1.5359128155978397e-05,5.456498183775693e-05
-3.2294999982696027e-05,4.005855225841515e-05,-1.2830470041080844e-05,5.5651034926995635e-05
-3.623323573265225e-05,3.553206261130981e-05,-1.274678925256012e-05,5.618469731416553e-05
-3.6153818655293435e-05,4.1116254578810185e-05,-1.6623134797555394e-05,5.506639354280196e-05
-3.14397802867461e-05,4.998185613658279e-05,-1.988082476600539e-05,5.618669092655182e-05
-2.8224007110111415e-05,4.868632458965294e-05,-2.075379597954452e-05,5.8834364608628675e-05
-2.934491385531146e-05,4.2848827433772385e-05,-2.3235843400470912e-05,6.060483428882435e-05
-3.212892261217348e-05,4.319647268857807e-05,-2.798584318952635e-05,5.937256719334982e-05
-3.3704567613312975e-05,4.3999007175443694e-05,-3.197231126250699e-05,5.3181669500190765e-05
-3.499436570564285e-05,3.9356800698442385e-05,-3.100787944276817e-05,4.615927173290402e-05
-3.621148061938584e-05,3.502330218907446e-05,-2.722814679145813e-05,4.518462810665369e-05
-3.632941661635414e-05,2.986375693581067e-05,-2.6545551008894108e-05,4.919835919281468e-05
-3.247014319640584e-05,2.1843539798283018e-05,-2.9280421586008742e-05,5.023796984460205e-05
-2.9117942176526412e-05,1.5960880773491226e-05,-3.0964332836447284e-05,4.624644134310074e-05
-2.7188239982933737e-05,1.7846627088147216e-05,-2.9158265533624217e-05,4.785043347510509e-05
-2.0956798834959045e-05,1.7725462384987622e-05,-2.4251421564258635e-05,5.4387113777920604e-05
-1.4568126061931252e-05,1.2605732990778051e-05,-1.7741500414558686e-05,5.8194214943796396e-05
-1.791173781384714e-05,1.2795781003660522e-05,-1.1335945600876585e-05,5.38439562660642e-05
-2.2053052816772833e-05,1.1210533557459712e-05,-8.612615602032747e-06,5.226218490861356e-05
-2.1998568627168424e-05,1.1949855434068013e-05,-8.376228834094945e-06,5.770948337158188e-05
-2.3020687876851298e-05,2.3800907001714222e-05,-5.961741408100352e-06,6.139877950772643e-05
-2.3373411750071682e-05,3.397108957869932e-05,-6.419104892074756e-08,5.9177498769713566e-05
-2.666700311237946e-05,3.446266782702878e-05,6.16779334450257e-06,5.619935836875811e-05
-3.2078984077088535e-05,3.0091747248661704e-05,7.188159543147776e-06,6.099671736592427e-05
-3.317849404993467e-05,2.9964827263029292e-05,2.894971203204477e-06,6.544131611008197e-05
-2.880011743400246e-05,3.208388443454169e-05,-5.524267976397823e-07,6.511556421173736e-05
-2.2639813323621638e-05,3.548736640368588e-05,1.1533278438946581e-06,6.368538015522063e-05
-1.9066692402702756e-05,3.9333772292593494e-05,5.904873887629947e-06,6.247236160561442e-05
-1.7535588995087892e-05,3.605306847020984e-05,5.09187339048367e-06,5.8334058849141e-05
-1.4482936421700288e-05,2.732761095103342e-05,-2.2314068246487295e-06,5.300295015331358e-05
-1.1720359907485545e-05,2.5011948309838772e-05,-1.119354237744119e-05,4.82793475384824e-05
-1.3093946108710952e-05,2.7194559152121656e-05,-1.8002283468376845e-05,4.437982715899125e-05
-1.7734500943333842e-05,2.714419679250568e-05,-2.3587184841744602e-05,4.3802203435916454e-05
-2.0650430087698624e-05,2.518416840757709e-05,-2.6888648790190928e-05,4.767891368828714e-05
-2.1342628315323964e-05,2.6446501578902826e-05,-2.52778463618597e-05,5.20188405062072e-05
-2.1101930542499758e-05,2.8989003112656064e-05,-2.0307295926613733e-05,5.2736348152393475e-05
-1.9267410607426427e-05,3.2419455237686634e-05,-1.5300225641112775e-05,4.949302092427388e-05
-1.8968428776133806e-05,3.549101165845059e-05,-1.4321323760668747e-05,4.498021007748321e-05
-2.0831270376220345e-05,3.2949836167972535e-05,-1.3059021512162872e-05,4.537660788628273e-05
-2.3006172341411002e-05,2.878492341551464e-05,-8.885303941497114e-06,5.095219603390433e-05
-2.560536449891515e-05,2.8119049602537416e-05,-4.342720785643905e-06,5.3705985919805244e-05
-2.4811259208945557e-05,3.266207204433158e-05,-3.1835002118896227e-06,5.5601325584575534e-05
-2.0810390196857043e-05,3.527859735186212e-05,-8.482121302222367e-06,5.52070232515689e-05
-1.904860073409509e-05,2.862420296878554e-05,-9.859091733233072e-06,5.200899613555521e-05
-1.837416311900597e-05,1.7192465747939423e-05,-5.129837063577725e-06,5.426108691608533e-05
-1.8492644812795334e-05,8.701812475919724e-06,-2.5937228542716184e-07,5.8202949730912223e-05
-2.4362574549741112e-05,7.677117537241429e-06,7.707529221079312e-06,5.942109783063643e-05
-2.7317288186168298e-05,1.9398805306991562e-05,1.5005841305537615e-05,5.836791024194099e-05
-2.501444578228984e-05,3.3214077120646834e-05,1.5707064449088648e-05,5.7553592341719195e-05
-2.3003951355349272e-05,3.960317189921625e-05,3.228464038329548e-06,5.963804869679734e-05
-2.1744721379945986e-05,3.4432214306434616e-05,-2.1944602849544026e-05,6.352173659252003e-05
-2.1157933588256128e-05,2.774928361759521e-05,-4.081591032445431e-05,6.443064194172621e-05
-1.8962276953971013e-05,2.6375986635684967e-05,-3.926104909623973e-05,6.385534652508795e-05
-1.963522663572803e-05,2.5085018933168612e-05,-2.5446744984947145e-05,6.401623977581039e-05
-2.5427154469070956e-05,2.7892425350728445e-05,-9.425584721611813e-06,6.220713839866221e-05
-3.2689084036974236e-05,2.8265692890272476e-05,4.7611879381292965e-06,5.881619290448725e-05
-3.612959335441701e-05,2.1254441890050657e-05,1.5325284039136022e-05,5.542583312490024e-05
-3.7365542084444314e-05,1.7009549992508255e-05,2.03144609258743e-05,5.326727841747925e-05
-3.676016058307141e-05,2.081521051877644e-05,2.0142406356171705e-05,5.454763595480472e-05
-3.32470954163e-05,2.287573806825094e-05,1.606783553143032e-05,5.6637509260326624e-05
-2.88211704173591e-05,2.0515186406555586e-05,9.269814654544462e-06,5.488842725753784e-05
-2.5479383111814968e-05,1.7093829228542745e-05,3.3403657653252594e-06,5.2131537813693285e-05
-2.377595410507638e-05,1.1711020306393038e-05,3.4110050251001667e-07,5.398815483204089e-05
-2.5440143872401677e-05,7.398260095214937e-06,-2.4043558823905187e-06,6.120175385149196e-05
-3.134740472887643e-05,6.547099928866373e-06,-5.741278982895892e-06,6.680012302240357e-05
-3.641970397438854e-05,5.698111635865644e-06,-6.439696335291956e-06,6.512586696771905e-05
-3.6754201573785394e-05,9.624645826988854e-06,-3.964232746511698e-06,5.7938894315157086e-05
-3.402367656235583e-05,1.6533522284589708e-05,2.7682808649842627e-06,5.1183844334445894e-05
-3.052438478334807e-05,1.905908720800653e-05,1.2577740562846884e-05,5.475878788274713e-05
-2.557487277954351e-05,2.0444387700990774e-05,1.665424497332424e-05,6.37257908238098e-05
-2.1971482055960223e-05,2.2231995899346657e-05,1.7709757230477408e-05,6.560524343512952e-05
-2.500561640772503e-05,2.79619125649333e-05,1.7651480447966605e-05,6.367772584781051e-05
-3.0139692171360366e-05,2.9144353902665898e-05,1.006600541586522e-05,5.933902139076963e-05
-2.723522629821673e-05,2.62565790762892e-05,4.119384811929194e-06,5.7227756769862026e-05
-2.381557715125382e-05,3.029015897482168e-05,4.5286001295608e-06,5.668419908033684e-05
-2.5261471819248982e-05,3.8630252674920484e-05,1.0361253771407064e-05,5.386504562920891e-05
-2.7256388420937583e-05,4.599651219905354e-05,1.2814803085348103e-05,5.299982149153948e-05
-3.133579230052419e-05,4.790334060089663e-05,4.855889073951403e-06,5.5163607612485066e-05
-3.6290828575147316e-05,4.334922778070904e-05,-5.989305009279633e-06,6.085569839342497e-05
-3.641677540144883e-05,3.594463851186447e-05,-1.0851271326828282e-05,6.411883805412799e-05
-3.369872865732759e-05,3.3977350540226325e-05,-1.1482541594887152e-05,6.262306123971939e-05
-3.122506677755155e-05,3.800579361268319e-05,-1.1881325917784125e-05,6.0505692090373486e-05
-2.8224729248904623e-05,3.78410768462345e-05,-1.0018851753557101e-05,6.0957707319175825e-05
-2.6852521841647103e-05,2.7589027013164014e-05,-1.0746598491095938e-05,6.2597006035503e-05
-2.853998012142256e-05,1.5640947822248563e-05,-1.5490233636228368e-05,6.411073263734579e-05
-3.090732207056135e-05,7.178196483437205e-06,-1.936532135005109e-05,6.286417919909582e-05
-3.120029214187525e-05,6.707569355057785e-06,-2.0520383259281516e-05,6.058123835828155e-05
-3.0056264222366735e-05,1.44958185046562e-05,-2.2793312382418662e-05,5.9548892750171944e-05
-2.8530424970085733e-05,1.9004963178304024e-05,-2.654486524988897e-05,5.8101122704101726e-05
-2.7309293727739714e-05,1.6527304978808388e-05,-2.9133660063962452e-05,5.819910438731313e-05
-2.74477933999151e-05,1.2081187378498726e-05,-2.616103483887855e-05,6.185915844980627e-05
-3.085334901697934e-05,1.1327205356792547e-05,-2.1963418475934304e-05,6.462670717155561e-05
-3.3264561352552846e-05,1.841155426518526e-05,-2.2635704226559028e-05,6.314583879429847e-05
-2.9925460694357753e-05,2.3507569494540803e-05,-2.367871093156282e-05,5.9241370763629675e-05
-2.7109444999950938e-05,1.691986653895583e-05,-2.3295517166843638e-05,5.486897862283513e-05
-2.693650094443001e-05,1.3425395991362166e-05,-2.3241609596880153e-05,5.1951570640085265e-05
-2.678853525139857e-05,2.5897797968355007e-05,-2.590240546851419e-05,5.116756074130535e-05
-2.777267582132481e-05,2.863293411792256e-05,-2.7860849513672292e-05,5.1526400056900457e-05
-3.181265856255777e-05,1.325455741607584e-05,-2.2335034373099916e-05,5.426646021078341e-05
-3.860686410916969e-05,1.2623264922240196e-07,-1.6137850252562203e-05,5.9037880419055e-05
-3.918676884495653e-05,-1.0208254934696015e-06,-1.6369103832403198e-05,5.994172897771932e-05
-3.381934584467672e-05,9.522728760202881e-06,-1.8164540961151943e-05,6.306626164587215e-05
-3.3320029615424573e-05,1.643240284465719e-05,-2.1087564164190553e-05,6.676847260678187e-05
-3.772686977754347e-05,1.1444564734119922e-05,-2.1004692825954407e-05,6.700351514155045e-05
-4.026035458082333e-05,-9.79116066446295e-07,-2.0742467313539237e-05,6.466439663199708e-05
-3.85571584047284e-05,-7.730001016170718e-06,-2.4561484678997658e-05,6.165389640955254e-05
-3.715339335030876e-05,-3.4085298921127105e-06,-2.7934971512877382e-05,6.252319872146472e-05
-3.9520880818599835e-05,1.265830360352993e-05,-2.7628595489659347e-05,6.257848144741729e-05
-3.876239497913048e-05,2.9407838155748323e-05,-2.439542549836915e-05,6.201524956850335e-05
-3.4410339139867574e-05,3.736524377018213e-05,-2.0597768525476567e-05,6.477993883891031e-05
-3.262295649619773e-05,3.633218148024753e-05,-1.9764311218750663e-05,6.854243110865355e-05
-3.1129999115364626e-05,3.6348708817968145e-05,-3.090388418058865e-05,7.000809273449704e-05
-2.802473318297416e-05,3.538998862495646e-05,-5.273470742395148e-05,6.860450230306014e-05
-2.4451332137687132e-05,3.029102117579896e-05,-6.686224514851347e-05,6.86994317220524e-05
-2.1956882847007364e-05,3.0047511245356873e-05,-6.173043220769614e-05,6.969938840484247e-05
-2.2088148398324847e-05,3.3571544918231666e-05,-4.640525366994552e-05,6.912698881933466e-05
-2.36096020671539e-05,3.2610372727504e-05,-3.16844780172687e-05,6.8470741098281e-05
-2.4196153390221298e-05,2.7267640689387918e-05,-2.15038799069589e-05,6.953949196031317e-05
-2.1622869098791853e-05,2.648026384122204e-05,-1.2302027244004421e-05,7.094127067830414e-05
-1.566781611472834e-05,2.9283028197824024e-05,9.67937012319453e-07,6.86580387991853e-05
-1.0213313544227276e-05,3.440485670580529e-05,1.6568774299230427e-05,6.634096644120291e-05
-1.0581064088910352e-05,4.067938425578177e-05,2.509979094611481e-05,6.665439286734909e-05
-1.62988762895111e-05,4.264961899025366e-05,2.5248673409805633e-05,6.080355160520412e-05
-1.9705255908775143e-05,3.980894689448178e-05,2.5112429284490645e-05,4.76237983093597e-05
-2.3904420231701806e-05,3.317678419989534e-05,2.638461228343658e-05,4.412229100125842e-05
-2.612886055430863e-05,2.1126952560734935e-05,2.6632038498064503e-05,5.55947408429347e-05
-2.3167644030763768e-05,1.6002984921215102e-05,2.6961119147017598e-05,6.565532385138795e-05
-2.1484049284481443e-05,1.7620473954593763e-05,2.375936310272664e-05,6.623939407290891e-05
-2.178442446165718e-05,2.323268745385576e-05,1.4115498743194621e-05,6.216272595338523e-05
-2.325672539882362e-05,2.9395743695204146e-05,2.6548980258667143e-06,6.0132901126053184e-05
-2.346153814869467e-05,3.3077427360694855e-05,-4.9983627832261845e-06,6.318297528196126e-05
-2.373889583395794e-05,2.9026139600318857e-05,-6.090964689065004e-06,6.389652116922662e-05
-2.3429955035680905e-05,2.4569711968069896e-05,-6.277044121816289e-06,6.0326077800709754e-05
-2.159842915716581e-05,2.669955210876651e-05,-4.6553195716114715e-06,5.7667235523695126e-05
-2.0420364307938144e-05,3.068589649046771e-05,-7.128630272745795e-07,6.0607842897297814e-05
-2.0860075892414898e-05,2.826936724886764e-05,6.677801138721406e-07,6.295057391980663e-05
-2.2724481823388487e-05,1.8642886061570607e-05,-6.495633328995609e-07,6.102255065343343e-05
-2.6910727683571167e-05,1.2713679097942077e-05,-1.59059354132296e-07,5.727036841562949e-05
-3.232260496588424e-05,1.4578489754057955e-05,2.03431113732222e-06,5.5106029321905226e-05
-3.610875137383118e-05,2.5096818717429414e-05,3.3688115763652604e-06,5.615549525828101e-05
-3.663941606646404e-05,3.55990523530636e-05,3.104881443505292e-06,5.792145020677708e-05
-3.717989966389723e-05,3.816808748524636e-05,-3.864044799684052e-07,5.842591417604126e-05
-3.837126860162243e-05,3.4615510230651125e-05,-5.1217825784988236e-06,5.9328634961275384e-05
-3.621462019509636e-05,3.2403553632320836e-05,-8.902075023797806e-06,5.714238795917481e-05
-2.9359593099798076e-05,2.934955591626931e-05,-1.278738182008965e-05,5.080522532807663e-05
-2.0607252736226656e-05,2.374812902417034e-05,-1.554025220684707e-05,4.6421198931057006e-05
-1.1402782547520474e-05,1.857740971900057e-05,-1.4868349353491794e-05,4.5713473809883e-05
-2.1324424324120628e-06,2.3930433599161915e-05,-9.77683248493122e-06,4.4722615712089464e-05
3.1368067539006006e-06,3.0222963687265292e-05,-1.3917662045059842e-06,4.139677184866741e-05
5.738164873037022e-06,3.084498530370183e-05,6.859781365164963e-08,3.985550210927613e-05
4.739467840408906e-06,3.090571772190742e-05,-7.54677239456214e-06,3.5043794923694804e-05
-5.138886081113014e-06,2.968260923807975e-05,-1.2841684110753704e-05,2.728152867348399e-05
-1.2963252629560884e-05,3.0581468308810145e-05,-8.267673365480732e-06,2.3116139345802367e-05
-1.3226436749391723e-05,2.9978915335959755e-05,-1.5102895076779532e-06,2.570642391219735e-05
-1.3311644579516724e-05,3.135726001346484e-05,-2.4983448838611366e-06,3.0465456802630797e-05
-1.4664518857898656e-05,3.115649087703787e-05,-7.940606337797362e-06,3.896794805768877e-05
-1.9721996068255976e-05,3.0221466658986174e-05,-1.199490998260444e-05,4.90973106934689e-05
-2.087727261823602e-05,3.261733945691958e-05,-1.640006303205155e-05,5.3096169722266495e-05
-1.9212653569411486e-05,3.550270412233658e-05,-1.752099342411384e-05,5.2194831368979067e-05
-2.0101484551560134e-05,3.253712930018082e-05,-1.5329789675888605e-05,5.1692259148694575e-05
-2.3304401111090556e-05,2.291451528435573e-05,-1.5620737030985765e-05,5.15255487698596e-05
-2.4968638172140345e-05,2.2322439690469764e-05,-1.4308922800410073e-05,5.0234910304425284e-05
-2.6397527108201757e-05,3.271657624281943e-05,-7.885302693466656e-06,4.832889680983499e-05
-3.0314629839267582e-05,4.0765615267446265e-05,-4.295175131119322e-06,4.808724770555273e-05
-3.0706734833074734e-05,3.7861147575313225e-05,-1.0137818208022509e-05,5.130115823703818e-05
-2.9398877813946456e-05,3.228740024496801e-05,-2.0488741938606836e-05,5.5064661864889786e-05
-3.0427578167291358e-05,2.5628363800933585e-05,-2.8502277928055264e-05,5.907496597501449e-05
-3.4373726521153e-05,1.7927377484738827e-05,-3.1097715691430494e-05,6.327300798147917e-05
-3.586477032513358e-05,1.3696968380827457e-05,-2.8331689463811927e-05,6.458382995333523e-05
-3.330358231323771e-05,1.578247974975966e-05,-2.2316387912724167e-05,6.439449498429894e-05
-2.9943914341856726e-05,2.378724457230419e-05,-1.527673884993419e-05,6.614260200876743e-05
-3.2434250897495076e-05,2.9228589482954703e-05,-1.0493073204997927e-05,6.583562935702503e-05
-4.088220157427713e-05,2.1531503080041148e-05,-1.0078051673190203e-05,6.275437772274017e-05
-4.751297819893807e-05,9.203010449709836e-06,-8.070434887486044e-06,5.902635894017294e-05
-4.78616202599369e-05,9.134558240475599e-06,-1.0839116839633789e-06,5.9371603128965944e-05
-4.5604487240780145e-05,1.7441263480577618e-05,7.064395049383165e-06,6.357477104756981e-05
-4.361450919532217e-05,2.330400275241118e-05,8.919747415347956e-06,6.996068259468302e-05
-3.741737236850895e-05,1.92850948224077e-05,3.88610033041914e-06,7.25078207324259e-05
-3.245086918468587e-05,1.088731823983835e-05,-6.569147444679402e-06,6.730631866957992e-05
-3.485750130494125e-05,5.55861242901301e-06,-1.809917011996731e-05,6.194553861860186e-05
-3.442971865297295e-05,5.333671651897021e-06,-2.2259058823692612e-05,6.2795530539006e-05
-2.793568819470238e-05,1.8465820176061243e-05,-1.784593223419506e-05,6.996947922743857e-05
-2.100439633068163e-05,3.498001751722768e-05,-1.2754668205161579e-05,7.75515436544083e-05
-1.4283483324106783e-05,4.092698509339243e-05,-1.4490595276583917e-05,7.997099601197988e-05
-7.454100341419689e-06,3.6742116208188236e-05,-1.5192409591691103e-05,7.569849549327046e-05
-4.512299710768275e-06,3.2429237762698904e-05,-1.1579609235923272e-05,6.957195000723004e-05
-8.139805686369073e-06,3.3009528124239296e-05,-6.366178695316194e-06,6.370749906636775e-05
-1.2461157893994823e-05,2.8563790692714974e-05,-2.4802045572869247e-06,5.859373777639121e-05
-1.4307306628325023e-05,2.71609806077322e-05,-1.9556864572223276e-06,5.70757438254077e-05
-1.563829391670879e-05,3.245400876039639e-05,-1.0911016943282448e-06,5.947249519522302e-05
-1.7261647371924482e-05,3.51202288584318e-05,5.852706976838817e-07,6.210934225236997e-05
-1.796793549146969e-05,3.207359986845404e-05,3.3526016522955615e-06,6.393680087057874e-05
-1.7808573829825036e-05,3.2098370866151527e-05,7.395067314064363e-06,6.740800017723814e-05
-1.739019717206247e-05,3.242356615373865e-05,1.1259638085903134e-05,6.867209594929591e-05
-1.776737190084532e-05,3.0346702260430902e-05,1.1214280675631016e-05,6.441604637075216e-05
-2.092564682243392e-05,2.775330540316645e-05,6.436462626879802e-06,5.8788467867998406e-05
-2.5164847102132626e-05,2.5310546334367245e-05,-2.6314674528293835e-07,5.480237086885609e-05
-2.713178218982648e-05,2.3600969143444672e-05,-8.419023288297467e-06,5.2639101340901107e-05
-2.798919376800768e-05,1.9114013412036e-05,-2.264164504595101e-05,5.4576797992922366e-05
-3.158873369102366e-05,6.593199486815138e-06,-4.616607475327328e-05,5.6825356296030805e-05
-3.7890556995989755e-05,-2.3663005777052604e-06,-6.565378862433136e-05,5.42087436770089e-05
-4.132620233576745e-05,2.7308335575071396e-06,-6.535282591357827e-05,4.974904004484415e-05
-3.96570103475824e-05,1.028849419526523e-05,-4.606193760992028e-05,4.840599649469368e-05
-3.453602403169498e-05,1.5146113582886755e-05,-1.9331660951138474e-05,4.973197792423889e-05
-3.1805902835913e-05,1.2258336937520653e-05,-2.457454399973358e-07,5.182386303204112e-05
-3.8280126318568364e-05,9.599958502803929e-06,1.0347510396968573e-05,4.962824095855467e-05
-4.675722448155284e-05,2.007282273552846e-05,1.557666291773785e-05,4.544882904156111e-05
-4.726777842734009e-05,3.3839725801954046e-05,1.4177963748807088e-05,4.666909808292985e-05
-4.321492451708764e-05,3.4211308957310393e-05,7.692839972150978e-06,4.894476296612993e-05
-3.861873847199604e-05,2.684735409275163e-05,-8.67892993028363e-07,5.089409023639746e-05
-3.297197326901369e-05,2.5597144485800527e-05,-6.688979283353547e-06,5.287042222335003e-05
-2.8008806111756712e-05,3.0334314942592755e-05,-8.453419468423817e-06,5.8344699937151745e-05
-2.4066610421868972e-05,3.660024231066927e-05,-6.992998805799289e-06,6.246036355150864e-05
-2.107572254317347e-05,3.98747761209961e-05,-7.988351171661634e-06,5.909324318054132e-05
-2.1316775018931367e-05,2.817296626744792e-05,-1.6079839042504318e-05,5.5685821280349046e-05
-2.344173117307946e-05,1.3276518984639551e-05,-3.0305116524687037e-05,5.684851203113794e-05
-2.4906756152631715e-05,1.0098950042447541e-05,-4.335850462666713e-05,5.955217784503475e-05
-2.479973409208469e-05,1.214645726577146e-05,-4.774764602188952e-05,6.064895569579676e-05
-2.7246042009210214e-05,1.2331192920100875e-05,-4.008632822660729e-05,6.298584776232019e-05
-3.155673039145768e-05,1.4174588613968808e-05,-2.6326650186092593e-05,6.430943903978914e-05
-3.404970993869938e-05,1.527184031147044e-05,-1.557994073664304e-05,6.410208879970014e-05
-3.468110298854299e-05,1.5844831068534404e-05,-9.853993105934933e-06,6.497467256849632e-05
-3.4997898183064535e-05,2.046440204139799e-05,-6.935916189831914e-06,6.62258462398313e-05
-3.6482178984442726e-05,2.3424778191838413e-05,-4.464250196178909e-06,6.695124466205016e-05
-3.65058658644557e-05,1.8785043721436523e-05,7.09101641405141e-07,6.702066457364708e-05
-3.627188198151998e-05,1.4969799849495757e-05,1.1509134310472291e-05,6.433099770219997e-05
-3.7863235775148496e-05,2.082867649733089e-05,2.9062006433377974e-05,6.426776963053271e-05
-3.9123344322433695e-05,2.8589511202881113e-05,4.511842053034343e-05,6.963970372453332e-05
-3.659212597995065e-05,3.1821797165321186e-05,4.443907528184354e-05,7.341199670918286e-05
-3.140365151921287e-05,3.0817300284979865e-05,2.4460350687149912e-05,7.242128776852041e-05
-2.3581111236126162e-05,3.2704523619031534e-05,-1.3434574839266133e-06,7.073289452819154e-05
-1.0335301340091974e-05,3.4614058677107096e-05,-1.9433691704762168e-05,7.184937567217276e-05
7.241919320222223e-06,3.9149061194621027e-05,-2.9978700695210136e-05,7.327119237743318e-05
1.3580917766375933e-05,4.365712811704725e-05,-3.4354896342847496e-05,7.92521532275714e-05
5.0868002290371805e-06,4.244299998390488e-05,-3.381847636774182e-05,8.45439062686637e-05
-4.21681988882483e-06,4.3024228943977505e-05,-2.9861748771509156e-05,7.725728210061789e-05
-1.5065849765960593e-05,4.466874815989286e-05,-2.6832880394067615e-05,7.002926577115431e-05
-2.4942146410467103e-05,5.271329064271413e-05,-2.6599494958645664e-05,7.167994772316888e-05
-2.6023031750810333e-05,5.642621181323193e-05,-2.757103538897354e-05,7.211694901343435e-05
-2.4065859179245308e-05,5.126075120642781e-05,-2.8145463147666305e-05,7.050741260172799e-05
-2.5181907403748482e-05,5.235729622654617e-05,-2.5693881980259903e-05,6.832378858234733e-05
-2.6793528377311304e-05,5.70947267988231e-05,-2.3714639610261656e-05,6.957425648579374e-05
-2.739973206189461e-05,6.039298386895098e-05,-2.3144213628256693e-05,7.362914038822055e-05
-2.477053931215778e-05,5.032648186897859e-05,-2.2153322788653895e-05,7.402708433801308e-05
-2.340383616683539e-05,2.3980825062608346e-05,-2.1436342649394646e-05,6.749112799298018e-05
-2.8134807507740334e-05,-1.0799513802339789e-05,-2.3183110897662118e-05,5.826281994814053e-05
-3.550028122845106e-05,-3.0598643206758425e-05,-2.5225726858479902e-05,5.0907332479255274e-05
-4.0439379517920315e-05,-1.7859047147794627e-05,-2.5470615582889877e-05,4.843470742343925e-05
-3.9863491110736504e-05,1.3040026715316344e-05,-2.451876389386598e-05,5.163472087588161e-05
-3.5943343391409144e-05,3.0126378987915814e-05,-2.3628046619705856e-05,5.6267865147674456e-05
-3.224482497898862e-05,2.5938064936781302e-05,-2.2236761651583947e-05,5.838359720655717e-05
-3.1241641408996657e-05,1.9275217709946446e-05,-1.8855662347050384e-05,5.677092121914029e-05
-3.14969292958267e-05,1.7147265680250712e-05,-1.5004286979092285e-05,5.568361302721314e-05
-3.222548548365012e-05,1.7819545973907225e-05,-1.2500424418249168e-05,5.7680132158566266e-05
-3.071223909500986e-05,2.074765507131815e-05,-1.1171501682838425e-05,5.67029019293841e-05
-2.6903584512183443e-05,2.1951156668365e-05,-1.0739444405771792e-05,5.347857586457394e-05
-2.500331356714014e-05,1.6849846360855736e-05,-9.444920578971505e-06,5.4938573157414794e-05
-2.389996916463133e-05,1.0380128514952958e-05,-9.796339327294845e-06,5.468267045216635e-05
-2.1909974748268723e-05,1.1356371942383703e-05,-1.1550097042345442e-05,5.256413351162337e-05
-1.9443774363026023e-05,1.5870609786361456e-05,-1.1302411621727515e-05,5.507748937816359e-05
-1.9429642634349875e-05,1.1272637493675575e-05,-1.2055466868332587e-05,5.87585054745432e-05
-2.0625551769626327e-05,9.07428784557851e-06,-1.448514376534149e-05,5.624513141810894e-05
-2.133394627890084e-05,1.2039636203553528e-05,-1.28512238006806e-05,5.166721894056536e-05
-2.451837463013362e-05,1.144135239883326e-05,-8.26214181870455e-06,4.99393863719888e-05
-2.8064794605597854e-05,1.2597876775544137e-05,-5.029626663599629e-06,5.29783392266836e-05
-2.96419548249105e-05,1.7054322597687133e-05,-1.755024413796491e-06,5.6015633163042367e-05
-2.8123311494709924e-05,1.535577939648647e-05,-3.4026234061457217e-06,5.950075501459651e-05
-2.5703435312607326e-05,8.04138198873261e-06,-5.637596586893778e-06,6.235125329112634e-05
-2.4014250811887905e-05,8.010984856809955e-06,-3.712046463988372e-06,6.263228715397418e-05
-2.4788518203422427e-05,2.1509453290491365e-05,-8.617310243153042e-08,6.0374575696187094e-05
-2.6550842449069023e-05,3.693533653859049e-05,-7.287073913175846e-07,5.682729170075618e-05
-2.528895674913656e-05,3.843934609903954e-05,-3.34828155246214e-06,5.941907147644088e-05
-2.1939980797469616e-05,2.8253036362002604e-05,-4.017400897282641e-06,6.578481406904757e-05
-2.2181671738508157e-05,1.9974675524281338e-05,-4.865960363531485e-06,7.002348138485104e-05
-2.4913464585551992e-05,1.849613727245014e-05,-7.023079888313077e-06,6.985170330153778e-05
-2.5900955733959563e-05,1.771780262060929e-05,-6.942607797100209e-06,6.802929419791326e-05
-2.495784792699851e-05,1.2922854693897534e-05,-2.724744035731419e-06,6.459572614403442e-05
-2.3122258426155895e-05,6.966805358388228e-06,1.0507189927011495e-06,6.415852112695575e-05
-2.1813262719660997e-05,7.6103874562249985e-06,2.3071399937180104e-06,6.677779310848564e-05
-2.065383523586206e-05,1.805819192668423e-05,-9.900708164423122e-07,6.685032712994143e-05
-2.127706102328375e-05,2.4529528673156165e-05,-2.8690674298559316e-06,6.41479782643728e-05
-2.2380219888873398e-05,2.0970921468688175e-05,-8.398518502872321e-07,6.378932448569685e-05
-2.34642720897682e-05,1.8461880245013162e-05,-3.3874667337840947e-07,6.616568134631962e-05
-2.1675139578292146e-05,1.8864333469537087e-05,-1.3680828487849794e-06,6.800564733566716e-05
-1.7307016605627723e-05,2.5955876481020823e-05,1.3266234191178228e-06,6.987896631471813e-05
-1.5394089132314548e-05,4.041501961182803e-05,2.283976755279582e-06,6.977030716370791e-05
-1.405323109793244e-05,4.5816865167580545e-05,-1.3660491049449774e-06,6.581420893780887e-05
-1.4619818102801219e-05,4.158476076554507e-05,-2.919408359502995e-07,6.294018385233358e-05
-1.7597132682567462e-05,3.905417906935327e-05,3.987598574894946e-06,6.061483145458624e-05
-1.9550001525203697e-05,3.843009835691191e-05,7.706684300501365e-06,5.779390630777925e-05
-2.1358167941798456e-05,4.3636046029860154e-05,7.398103662126232e-06,5.884223719476722e-05
-2.257245796499774e-05,4.9278434744337574e-05,-6.833701036157436e-07,6.217957707121968e-05
-2.1559239030466415e-05,4.341400199336931e-05,-5.9689555200748146e-06,5.987922486383468e-05
-1.825166145863477e-05,3.378217661520466e-05,-9.620431228540838e-06,5.169866562937386e-05
-1.8956850908580236e-05,2.521628084650729e-05,-1.3712497093365528e-05,4.752102540805936e-05
-2.1383541024988517e-05,1.2062636415066663e-05,-1.5095659364305902e-05,5.0681817810982466e-05
-2.3249971491168253e-05,7.361873940681107e-06,-1.404049362463411e-05,5.6806078646332026e-05
-2.3684086045250297e-05,1.878061084426008e-05,-1.4380554603121709e-05,6.0435657360358164e-05
-2.3939463062561117e-05,3.1649287848267704e-05,-1.4288729289546609e-05,6.002818190609105e-05
-2.4558015866205096e-05,3.193590237060562e-05,-6.655783181486186e-06,5.524890002561733e-05
-2.4585466235294007e-05,2.2254318537306972e-05,7.173360927481554e-07,4.783719123224728e-05
-2.5282786737079732e-05,1.1219085536140483e-05,-2.2724425434716977e-06,4.3352763896109536e-05
-2.5058718165382743e-05,9.235291145159863e-06,-1.2881564543931745e-05,4.54807304777205e-05
-2.4844519430189393e-05,1.6148373106261715e-05,-2.105518251482863e-05,4.797906876774505e-05
-2.701631274248939e-05,1.8976748833665624e-05,-2.2416697902372107e-05,4.8597554268781096e-05
-2.972117181343492e-05,1.657699976931326e-05,-2.029529605351854e-05,5.0320570153417066e-05
-3.225439286325127e-05,1.2306511962378863e-05,-2.0099982066312805e-05,5.1838276704074815e-05
-3.821006612270139e-05,5.7084098443738185e-06,-1.7644359104451723e-05,5.239387974143028e-05
-4.0724422433413565e-05,1.5906429098322405e-06,-1.1434328371251468e-05,5.180048901820555e-05
-3.798192847170867e-05,6.238462447072379e-06,-1.538558535685297e-05,4.699310375144705e-05
-3.7859557778574526e-05,1.469876315240981e-05,-3.7605990655720234e-05,4.290935612516478e-05
-4.054905366501771e-05,2.1886953618377447e-05,-5.971402788418345e-05,4.546633499558084e-05
-4.00576027459465e-05,2.9551205443567596e-05,-6.227903941180557e-05,4.799757516593672e-05
-3.66945932910312e-05,2.9922885005362332e-05,-4.6075176214799285e-05,4.6290955651784316e-05
-3.395016028662212e-05,2.72118177235825e-05,-2.4007787942537107e-05,4.379856545710936e-05
-3.607466715038754e-05,2.6789579351316206e-05,-2.9002037535974523e-06,4.279556742403656e-05
-3.78590302716475e-05,2.1949392248643562e-05,1.1180976798641495e-05,4.078383790329099e-05
-3.515442585921846e-05,2.1014031517552212e-05,2.0892828615615144e-05,3.865110193146393e-05
-3.3546730264788494e-05,3.0632181733381e-05,3.142888090224005e-05,3.613542139646597e-05
-3.571490015019663e-05,3.722806286532432e-05,4.214187720208429e-05,3.773261414607987e-05
-3.6463818105403334e-05,3.395870226086117e-05,4.955913027515635e-05,4.267054100637324e-05
-3.494559496175498e-05,3.167925387970172e-05,4.297984196455218e-05,4.509601058089174e-05
-3.137148451060057e-05,3.1650964956497774e-05,2.7385904104448855e-05,4.519088543020189e-05
-2.79442665487295e-05,3.748382368939929e-05,1.0095734978676774e-05,4.377242657938041e-05
-2.9508635634556413e-05,4.233418803778477e-05,-3.262575773987919e-06,4.5293574657989666e-05
-3.200189530616626e-05,3.6770950828213245e-05,-1.0144625775865279e-05,4.836962398258038e-05
-3.0514622267219238e-05,2.2345468096318655e-05,-1.2412297110131476e-05,5.09911697008647e-05
-2.688952190510463e-05,1.2305157724767923e-05,-1.4238024959922768e-05,5.2776264055864885e-05
-2.695981129363645e-05,1.12574662125553e-05,-1.8857857867260464e-05,5.626284837489948e-05
-3.04756667901529e-05,1.552218964206986e-05,-2.3253624021890573e-05,5.945009252172895e-05
-3.3844429708551615e-05,2.2707310563419014e-05,-2.3845943360356614e-05,5.958985275356099e-05
-3.5084249248029664e-05,2.6825848181033507e-05,-2.2089167032390833e-05,5.879820673726499e-05
-3.405418829061091e-05,2.533105362090282e-05,-2.1564344933722168e-05,5.7776851463131607e-05
-3.0502862500725314e-05,2.2523327061207965e-05,-1.9460792827885598e-05,5.724427683162503e-05
-2.6706131393439136e-05,1.8800594261847436e-05,-1.1804719179053791e-05,5.8975565480068326e-05
-2.4044156816671602e-05,1.802925908123143e-05,2.1648561414622236e-06,6.114576535765082e-05
-2.4046861653914675e-05,2.394705734332092e-05,1.1077069757448044e-05,6.13969168625772e-05
-2.4452041543554515e-05,2.925547414633911e-05,1.15829070637119e-05,6.153423601062968e-05
-2.2698262910125777e-05,3.64866282325238e-05,1.2883951058029197e-05,6.205281533766538e-05
-1.95051161426818e-05,3.9492599171353504e-05,1.3275294804770965e-05,6.308832234935835e-05
-1.709940806904342e-05,3.769856266444549e-05,5.46727460459806e-06,6.169159314595163e-05
-1.7687529179966077e-05,3.192401345586404e-05,-7.074202130752383e-06,6.011092773405835e-05
-1.7328156900475733e-05,2.4984299670904875e-05,-1.3837473488820251e-05,6.0382619267329574e-05
-1.724632784316782e-05,1.9839522792608477e-05,-1.6280067939078435e-05,6.120781472418457e-05
-1.833243550208863e-05,2.2465024812845513e-05,-1.720268301141914e-05,6.126391963334754e-05
-1.936243825184647e-05,3.250660665798932e-05,-1.7467869838583283e-05,5.8903890021611005e-05
-1.9488190446281806e-05,3.535359428497031e-05,-1.9506764147081412e-05,5.591471563093364e-05
-1.5370187611551955e-05,2.9054184778942727e-05,-2.058920290437527e-05,5.478111779666506e-05
-1.183169661089778e-05,2.318993028893601e-05,-1.9616923964349553e-05,5.676989530911669e-05
-1.2661767868848983e-05,2.5803325115703046e-05,-1.8126112991012633e-05,5.7623918110039085e-05
-1.5796980733284727e-05,3.497195211821236e-05,-1.7476089851697907e-05,5.3858595492783934e-05
-1.9039400285691954e-05,3.6669527617050335e-05,-1.6730415154597722e-05,4.827779412153177e-05
-2.079395744658541e-05,2.6884265025728382e-05,-1.775282908056397e-05,4.5254822907736525e-05
-2.011355900322087e-05,1.6670464901835658e-05,-2.0318371753091924e-05,4.745366095448844e-05
-1.673263977863826e-05,1.5536998034804128e-05,-2.0423567548277788e-05,4.9953192501561716e-05
-1.3327753549674526e-05,1.800501013349276e-05,-1.598319249751512e-05,5.173099270905368e-05
-1.4846117665001657e-05,2.2781416191719472e-05,-9.631989087210968e-06,5.598347706836648e-05
-2.1053810996818356e-05,3.129402466583997e-05,-4.450768756214529e-06,5.88352995691821e-05
-2.5108874979196116e-05,3.5678775020642206e-05,-3.953204213757999e-06,5.7005134294740856e-05
-2.5492976419627666e-05,3.4205389965791255e-05,-1.0635477337928023e-05,5.400790541898459e-05
-2.6363473807577975e-05,3.414803359191865e-05,-1.797274853743147e-05,5.170420263311826e-05
-2.7591839170781896e-05,3.5632881917990744e-05,-1.9569128198781982e-05,5.132251317263581e-05
-2.7408384994487278e-05,3.226278204238042e-05,-1.8355574866291136e-05,5.353047527023591e-05
-2.5032330086105503e-05,2.8576489057741128e-05,-1.8942631868412718e-05,5.6714587117312476e-05
-2.2190903109731153e-05,2.2870553948450834e-05,-1.89567817869829e-05,5.9409278037492186e-05
-2.4437033061985858e-05,1.5255441212502774e-05,-1.8607221136335284e-05,6.47530541755259e-05
-2.955504896817729e-05,1.3409905477601569e-05,-1.8019616618403234e-05,6.730908353347331e-05
-3.302311597508378e-05,1.924033676914405e-05,-1.7032512914738618e-05,6.236267654458061e-05
-3.1754650990478694e-05,2.3322185370489024e-05,-1.9121573131997138e-05,6.076879799365997e-05
-2.712025525397621e-05,1.1822938176919706e-05,-2.0486721041379496e-05,6.480085721705109e-05
-2.7628362659015693e-05,1.3165953305360745e-06,-1.7836833649198525e-05,6.651735748164356e-05
-3.118982203886844e-05,5.25120822203462e-06,-1.444383269699756e-05,6.578380998689681e-05
-3.311357431812212e-05,9.501554814050905e-06,-1.4140361599856988e-05,6.641020445385948e-05
-3.2531836041016504e-05,1.0128653229912743e-05,-1.5237480511132162e-05,6.547158409375697e-05
-2.7891308491234668e-05,3.3149906357721193e-06,-1.3474965271598194e-05,6.70663284836337e-05
-2.4254935851786286e-05,-5.503634838532889e-06,-9.884004612104036e-06,6.94777918397449e-05
-2.2973697923589498e-05,-7.222879958135309e-06,-6.392925115505932e-06,7.035705493763089e-05
-2.1693958842661232e-05,4.557853571895976e-06,-1.7439861039747484e-06,6.597111496375874e-05
-2.0498227968346328e-05,1.953158061951399e-05,5.716194209526293e-06,5.630638770526275e-05
-1.9444969439064153e-05,2.7851052436744794e-05,1.1214311598450877e-05,4.7826524678384885e-05
-2.0952069462509826e-05,2.623319778649602e-05,8.987623914435972e-06,4.4744669139618054e-05
-2.3806074750609696e-05,1.9171640815329738e-05,-1.7460826029491727e-06,4.379932943265885e-05
-2.3324351786868647e-05,1.638661888136994e-05,-1.623076605028473e-05,4.2709452827693895e-05
-2.008847332035657e-05,2.3748776584398e-05,-2.7685109671438113e-05,4.5239663450047374e-05
-1.8357943190494552e-05,3.4189430152764544e-05,-3.373621802893467e-05,4.7652487410232425e-05
-1.670820711296983e-05,3.471206218819134e-05,-3.540679972502403e-05,4.791415631189011e-05
-1.2846562640334014e-05,2.814361869241111e-05,-3.351297345943749e-05,4.727594568976201e-05
-1.150631214841269e-05,2.2015272406861186e-05,-3.1372062949230894e-05,4.783637268701568e-05
-1.3709729500988033e-05,2.027864320552908e-05,-3.2911171729210764e-05,5.0545910198707134e-05
-1.5412964785355143e-05,2.8852700779680163e-05,-3.5464971006149426e-05,5.713311111321673e-05
-1.555795461172238e-05,4.415997682372108e-05,-3.5466124245431274e-05,6.129315443104133e-05
-1.3884665349905845e-05,4.387154694995843e-05,-3.5752167605096474e-05,5.715777297155e-05
-1.3136977031535935e-05,3.556562296580523e-05,-3.30165057675913e-05,5.398942084866576e-05
-1.4926800758985337e-05,2.966290048789233e-05,-2.6562523999018595e-05,5.7211083912989125e-05
-1.8703434761846438e-05,2.6816311219590716e-05,-2.0978186512365937e-05,6.102044426370412e-05
-2.337307159905322e-05,2.5496716261841357e-05,-1.5631410860805772e-05,6.26057299086824e-05
-2.564975329732988e-05,2.3382661311188713e-05,-5.016191153117688e-06,6.227251287782565e-05
-2.6890966182691045e-05,2.2604739569942467e-05,8.070913281699177e-06,6.154848233563825e-05
-2.558578307798598e-05,3.2506966817891225e-05,1.5022016668808647e-05,5.8431025536265224e-05
-2.1984829800203443e-05,4.7460012865485623e-05,1.8348278899793513e-05,5.622755270451307e-05
-1.9774337488343008e-05,4.722391167888418e-05,2.0773695723619312e-05,5.948299076408148e-05
-1.733906174194999e-05,4.019561310997233e-05,2.479205431882292e-05,6.563817441929132e-05
-1.355218864773633e-05,3.954144995077513e-05,2.6258572688675486e-05,6.70962908770889e-05
-1.103269914892735e-05,4.4945023546461016e-05,2.2470601834356785e-05,6.367106107063591e-05
-1.3172754734114278e-05,4.418848402565345e-05,1.6055399100878276e-05,5.8800502301892266e-05
-1.6849757230374962e-05,3.3158798032673076e-05,1.2180575140519068e-05,5.63456051168032e-05
-2.1819792891619727e-05,2.4516226403648034e-05,1.2890583093394525e-05,5.3877909522270784e-05
-2.896414662245661e-05,2.4608869352960028e-05,1.6780993973952718e-05,4.830645411857404e-05
-3.440754153416492e-05,3.051902967854403e-05,1.78819645952899e-05,4.753391112899408e-05
-3.5378972825128585e-05,3.4631582821020856e-05,1.1972837455687113e-05,5.623936885967851e-05
-3.1610008591087535e-05,3.482794272713363e-05,3.9646065488341264e-06,6.687537097604945e-05
-2.654506897670217e-05,3.018768438778352e-05,-3.6630453905672766e-06,7.03025289112702e-05
-2.521701026125811e-05,1.9979310309281573e-05,-9.350932486995589e-06,6.808336183894426e-05
-2.7770312954089604e-05,9.397048415848985e-06,-1.2705326298600994e-05,6.442743324441835e-05
-2.971360481751617e-05,7.280370937223779e-06,-1.424070342181949e-05,6.0598071286221966e-05
-2.957953438453842e-05,1.0041573659691494e-05,-1.584969686518889e-05,5.665851858793758e-05
-2.9201126380939968e-05,1.039700237015495e-05,-1.5665860701119527e-05,5.759222767665051e-05
-2.960000347229652e-05,9.818585567700211e-06,-1.585930112923961e-05,6.226261029951274e-05
-2.995770591951441e-05,7.970626938913483e-06,-1.7372936781612225e-05,6.954588025109842e-05
-3.093328996328637e-05,5.539607172977412e-06,-1.4097336134000216e-05,7.107477722456679e-05
-2.8970980565645732e-05,9.275634511141106e-06,-6.925781235622708e-06,6.689126894343644e-05
-2.4717328415135853e-05,2.022804255830124e-05,-3.042290018129279e-06,6.614629091927782e-05
-2.5154695322271436e-05,1.971514029719401e-05,-3.000209517267649e-06,6.391703936969861e-05
-2.551342549850233e-05,9.270289410778787e-06,-9.688597856438719e-06,5.941820199950598e-05
-2.2878932213643566e-05,6.242591553018428e-06,-2.8335196475381963e-05,6.0569727793335915e-05
-2.0741645130328834e-05,4.153466761636082e-06,-4.849947799812071e-05,6.455228867707774e-05
-2.4897912226151675e-05,4.232601440889994e-06,-5.611970482277684e-05,6.50788497296162e-05
-3.4307864552829415e-05,6.0870925153722055e-06,-4.71380990347825e-05,6.738883530488238e-05
-3.871754233841784e-05,8.543075637135189e-06,-2.979708915518131e-05,6.676367775071412e-05
-3.865722464979626e-05,1.8947061107610352e-05,-1.358105964754941e-05,6.0684535128530115e-05
-3.70628185919486e-05,2.9201721190474927e-05,-2.0295954072935274e-06,5.66965936741326e-05
-3.806619133683853e-05,3.1950967240845785e-05,6.2376843743550126e-06,5.6581418903078884e-05
-3.813943840214051e-05,2.902316009567585e-05,1.5168191566772293e-05,5.6464934459654614e-05
-3.779386679525487e-05,2.71307653747499e-05,2.1085035768919624e-05,5.609295112662949e-05
-4.1118957597063854e-05,2.7346799470251426e-05,2.1157658920856193e-05,5.997996049700305e-05
-4.3387328332755715e-05,3.078213194385171e-05,1.7414402464055456e-05,6.182373181218281e-05
-4.0354094380745664e-05,3.558613025234081e-05,1.2835853340220638e-05,5.98971382714808e-05
-3.348364043631591e-05,4.0203245589509606e-05,8.732599781069439e-06,5.986959513393231e-05
-2.9342359994188882e-05,4.041666761622764e-05,4.424170128913829e-06,5.9753951063612476e-05
-2.7384474378777668e-05,3.200924402335659e-05,-1.1606412719800119e-08,5.717007661587559e-05
-2.628006404847838e-05,2.486954690539278e-05,-3.019812311322312e-06,5.468469316838309e-05
-2.6324409191147424e-05,2.8364349418552592e-05,-5.311886070558103e-06,5.43540227226913e-05
-2.6932149921776727e-05,3.450090662227012e-05,-6.2804774643154815e-06,5.55203077965416e-05
-2.5701361664687283e-05,3.65409032383468e-05,-3.3659214295767015e-06,5.492011405294761e-05
-2.4271299480460584e-05,3.672891762107611e-05,-2.985611899930518e-06,5.3076782933203503e-05
-2.4548817236791365e-05,3.697838474181481e-05,-5.385246367950458e-06,5.110328856972046e-05
-2.5892968551488593e-05,3.604016819735989e-05,-8.17859108792618e-06,5.240177415544167e-05
-2.7684134693117812e-05,3.7372996303020045e-05,-1.1373128472769167e-05,5.889277235837653e-05
-2.858717562048696e-05,3.726451541297138e-05,-1.404248450853629e-05,6.445823237299919e-05
-2.489841244823765e-05,3.2151336199603975e-05,-1.6693236830178648e-05,6.728662992827594e-05
-2.0785828382940963e-05,2.3328397219302133e-05,-2.1574751372099854e-05,6.780147668905556e-05
-2.227337972726673e-05,2.1887182811042294e-05,-2.802579547278583e-05,6.447810301324353e-05
-2.6462654204806313e-05,3.3878517569974065e-05,-2.5758854462765157e-05,6.354274955810979e-05
-3.1249986932380125e-05,3.712877514772117e-05,-1.9857785446220078e-05,6.731071334797889e-05
-3.721724351635203e-05,2.9346239898586646e-05,-2.1083445972180925e-05,6.723014666931704e-05
-3.890555672114715e-05,1.9141305529046804e-05,-2.6611836801748723e-05,6.50298607069999e-05
-3.536602889653295e-05,1.5855084711802192e-05,-2.721179771469906e-05,6.343741551972926e-05
-3.222215309506282e-05,2.0208673959132284e-05,-2.1971791284158826e-05,6.522816693177447e-05
-3.0211951525416225e-05,3.168911280226894e-05,-1.473319480282953e-05,6.945718632778153e-05
-2.944576772279106e-05,3.893657776643522e-05,-5.823696938023204e-06,6.946386565687135e-05
-2.6882613383349963e-05,3.453021417954005e-05,-2.439012178001576e-06,6.407685577869415e-05
-2.219996167696081e-05,2.469782884872984e-05,-9.836981917032972e-06,6.057865175534971e-05
-1.9086886823060922e-05,1.3621674042951781e-05,-2.0093424609513022e-05,6.242096424102783e-05
-2.135388604074251e-05,8.187863386410754e-06,-2.3675609554629773e-05,6.637800834141672e-05
-2.4645956727908924e-05,1.5181935850705486e-05,-2.237364969914779e-05,6.817265966674313e-05
-2.4800403480185196e-05,2.711976230784785e-05,-2.173782377212774e-05,6.542860501212999e-05
-2.520303678466007e-05,3.076592838624492e-05,-2.1322477550711483e-05,6.197630136739463e-05
-2.8665428544627503e-05,2.6587262254906818e-05,-1.9168022845406085e-05,6.028920324752107e-05
-2.9022154194535688e-05,1.982351386686787e-05,-1.6965654140221886e-05,6.220187060534954e-05
-2.468467937433161e-05,2.0577028408297338e-05,-1.6009968021535315e-05,6.582334754057229e-05
-2.5990668291342445e-05,2.630147719173692e-05,-1.7133093933807686e-05,6.638616468990222e-05
-3.2454165193485096e-05,3.2712050597183406e-05,-1.7382189980708063e-05,6.358863174682483e-05
-3.473206743365154e-05,2.933582800324075e-05,-1.4487951375485864e-05,6.055421181372367e-05
-3.195208773831837e-05,2.0675794075941667e-05,-1.1366320904926397e-05,6.0072179621784016e-05
-2.9037220883765258e-05,2.43461527134059e-05,-9.891677109408192e-06,6.135620060376823e-05
-2.1831780031789094e-05,2.991839028254617e-05,-5.873087047802983e-06,6.37922203168273e-05
-1.3319057870830875e-05,3.011013541254215e-05,1.4179032632455346e-06,6.605637463508174e-05
-1.575407623022329e-05,2.2052390704629943e-05,3.386375055924873e-06,6.585768278455362e-05
-2.119970667990856e-05,5.392423190642148e-06,-4.987225565855624e-06,6.653519085375592e-05
-2.3256390704773366e-05,-4.183171768090688e-06,-1.4790209206694271e-05,6.594270234927535e-05
-2.379680154263042e-05,-5.110783149575582e-06,-1.914728454721626e-05,6.361382111208513e-05
-2.487215169821866e-05,-1.8616931356518762e-06,-2.2496744350064546e-05,6.289088196353987e-05
-2.764364762697369e-05,4.561309197015362e-06,-2.620009399834089e-05,6.424309685826302e-05
-2.8678363378276117e-05,1.5984036508598365e-05,-2.5966397515730932e-05,6.567025411641225e-05
-2.9922395697212778e-05,2.4554743504268117e-05,-2.241173388028983e-05,6.609451520489529e-05
-3.085975913563743e-05,2.459768802509643e-05,-2.944035986729432e-05,6.71000816510059e-05
-3.164062582072802e-05,2.2166143025970086e-05,-5.3195264626992866e-05,6.555794243467972e-05
-3.006104270752985e-05,1.9817300199065357e-05,-7.425316289300099e-05,6.248903810046613e-05
-2.8112641302868724e-05,1.9251296180300415e-05,-7.661659037694335e-05,6.0956306697335094e-05
-2.9045115297776647e-05,2.1054429453215562e-05,-6.040939115337096e-05,5.9369351220084354e-05
-3.293703412055038e-05,2.1999290765961632e-05,-3.6066205211682245e-05,5.747071554651484e-05
-3.774316064664163e-05,1.9757844711421058e-05,-1.42122889883467e-05,5.827819768455811e-05
-4.059631100972183e-05,1.7047757864929736e-05,5.0220305638504215e-06,5.962600698694587e-05
-3.763975473702885e-05,1.7884714907268062e-05,2.722976205404848e-05,5.835997944814153e-05
-3.126354931737296e-05,2.3991511625354178e-05,4.706252730102278e-05,5.6406468502245843e-05
-2.8498307074187323e-05,3.219390055164695e-05,5.419585431809537e-05,5.461449836730026e-05
-2.7862466595252044e-05,3.985947114415467e-05,5.305884042172693e-05,5.526474706130102e-05
-2.6367879399913363e-05,5.2125807997072116e-05,5.343674274627119e-05,5.865076309419237e-05
-2.4462722649332136e-05,6.83843536535278e-05,5.4530592024093494e-05,6.100440077716485e-05
-2.3907954528112896e-05,6.727095023961738e-05,4.745441401610151e-05,6.0949474573135376e-05
-2.415416565781925e-05,4.336053825682029e-05,3.1844389013713226e-05,5.8616446040105075e-05
-2.512464561732486e-05,2.0180619685561396e-05,1.602492920937948e-05,5.386530756368302e-05
-2.521799979149364e-05,1.3072104593447875e-05,9.729923476697877e-06,4.808216908713803e-05
-2.404096994723659e-05,1.9745304598473012e-05,1.1119456758024171e-05,4.731406443170272e-05
-2.2907817765371874e-05,2.0445779227884486e-05,8.413042451138608e-06,5.195931589696556e-05
-2.3345783120021224e-05,1.1292587259958964e-05,4.004250058642356e-06,5.70514275750611e-05
-2.379768920945935e-05,1.1236738828301895e-05,4.8064202928799205e-06,6.03094304096885e-05
-2.568998752394691e-05,2.318666702194605e-05,3.6372166505316272e-06,5.888077794224955e-05
-2.9408443879219703e-05,4.760611409437843e-05,-2.6577538392302813e-07,5.609837535303086e-05
-2.9141470804461278e-05,7.788406946929172e-05,-3.3210999390576035e-06,5.665835487889126e-05
-2.4972287064883858e-05,0.0001003765210043639,-4.437753887032159e-06,6.034623584127985e-05
-2.4640035917400382e-05,0.0001028003025567159,-4.7147782424872275e-06,6.298084190348163e-05
-2.9057544452371076e-05,9.327255247626454e-05,-5.2396953833522275e-06,6.285577546805143e-05
-2.9876688131480478e-05,7.531501614721492e-05,-6.402888629963854e-06,6.0075497458456084e-05
-2.5103810912696645e-05,5.369307109504007e-05,-9.777918421605136e-06,5.654400956700556e-05
-2.2144695321912877e-05,4.448577237781137e-05,-1.394485207129037e-05,5.7827714044833556e-05
-2.2465237634605728e-05,4.900970452581532e-05,-1.5856594473007135e-05,6.178963667480275e-05
-2.0727580704260617e-05,5.7902117987396196e-05,-1.6931964637478814e-05,6.308792217168957e-05
-1.4737020137545187e-05,5.940199116594158e-05,-1.709082607703749e-05,6.233027670532465e-05
-6.3031993704498746e-06,4.491100844461471e-05,-1.5413386790896766e-05,6.189529813127592e-05
-2.0511886305030202e-06,1.8388551552561694e-06,-1.655975756875705e-05,6.031352313584648e-05
-8.651077223476022e-06,-5.450522439787164e-05,-2.478659553162288e-05,5.54748039576225e-05
-2.058386780845467e-05,-7.397541776299477e-05,-3.609068880905397e-05,4.798044028575532e-05
-2.7493088055052795e-05,-3.0625800718553364e-05,-4.0679264202481136e-05,4.304102185415104e-05
-2.7776099159382284e-05,2.7148691515321843e-05,-3.8089325244072825e-05,4.3253869080217555e-05
-2.9383760193013586e-05,4.530579099082388e-05,-3.531723268679343e-05,4.1279057768406346e-05
-3.405133611522615e-05,4.9863156164065e-06,-3.530798858264461e-05,3.9975257095647976e-05
-3.627916521509178e-05,-7.81639464548789e-05,-3.290634776931256e-05,4.622760388883762e-05
-3.123556962236762e-05,-0.0001390699908370152,-2.4162320187315345e-05,5.296707240631804e-05
-2.6194116799160838e-05,-0.00013604268315248191,-1.599334427737631e-05,5.515388329513371e-05
-2.9546634323196486e-05,-9.220882930094376e-05,-1.5040124708320946e-05,5.24895112903323e-05
-3.45707630913239e-05,-5.531113492907025e-05,-1.4124499102763366e-05,5.042047632741742e-05
-3.779400503844954e-05,-3.677706263260916e-05,-1.1514573088788893e-05,4.8640573368174955e-05
-3.8792404666310176e-05,-2.1480069335666485e-05,-1.1002756764355581e-05,4.91892387799453e-05
-3.7128633266547695e-05,-1.4778815966565162e-05,-1.3715297427552287e-05,5.323352161212824e-05
-3.263280086684972e-05,-1.713398341962602e-05,-1.9007338778465055e-05,5.3108429710846394e-05
-2.7110310838907026e-05,-2.5249233658541925e-05,-2.1650981580023654e-05,5.222903928370215e-05
-2.1715048205805942e-05,-2.5401370294275694e-05,-2.089950066874735e-05,5.507440073415637e-05
-2.0005945771117695e-05,-1.3695098459720612e-05,-1.9553885067580268e-05,6.052849494153634e-05
-2.2455176804214716e-05,1.919433088914957e-06,-1.9261035049567e-05,6.587411189684644e-05
-2.8246717192814685e-05,1.675054409133736e-05,-2.0402565496624447e-05,7.012146670604125e-05
-2.9732695111306384e-05,2.1378224118961953e-05,-2.1559515516855754e-05,7.14636844350025e-05
-2.6884603357757442e-05,1.7631211449042894e-05,-2.2236066797631793e-05,7.25715362932533e-05
-2.5319539417978376e-05,1.7144348021247424e-05,-2.08306319109397e-05,7.272012589965016e-05
-2.5875686333165504e-05,3.037997885257937e-05,-1.8495718904887326e-05,6.944078631931916e-05
-2.6758631065604277e-05,5.166586925042793e-05,-1.5771616745041683e-05,6.71305024297908e-05
-2.8106656827731058e-05,7.003948121564463e-05,-1.4465874301095027e-05,6.865067553007975e-05
-2.9934511985629797e-05,7.814639684511349e-05,-1.5831372365937568e-05,6.990382826188579e-05
-2.9212204026407562e-05,8.400541264563799e-05,-1.5839985280763358e-05,6.841275899205357e-05
-2.5897632440319285e-05,9.222512017004192e-05,-1.3888457033317536e-05,6.601708446396515e-05
-1.8724993424257264e-05,9.340261021861807e-05,-1.454070024919929e-05,6.54963732813485e-05
-1.4639193977927789e-05,8.36856197565794e-05,-1.838270327425562e-05,6.831562495790422e-05
-1.382139544148231e-05,7.558291690656915e-05,-2.0218087229295634e-05,6.725121784256771e-05
-1.3759085049969144e-05,7.481842476408929e-05,-2.2108744815341197e-05,6.334193312795833e-05
-1.393123238813132e-05,7.506320980610326e-05,-2.4976226995931938e-05,6.658189522568136e-05
-1.206953493237961e-05,7.718769484199584e-05,-2.3489181330660358e-05,7.292203372344375e-05
-8.88530757947592e-06,7.554856711067259e-05,-1.9430428437772207e-05,7.368998194579035e-05
-9.705987395136617e-06,7.207424641819671e-05,-1.446834266971564e-05,7.005607767496258e-05
-1.35159561978071e-05,7.181355613283813e-05,-9.36650212679524e-06,6.862339068902656e-05
-1.609061837370973e-05,7.105124677764252e-05,-6.5204239945160225e-06,6.622346700169146e-05
-1.404504382662708e-05,6.957392179174349e-05,-4.704282218881417e-06,6.069318624213338e-05
-1.512124617875088e-05,6.526704237330705e-05,-3.6251185520086437e-06,5.716434679925442e-05
-2.0524188585113734e-05,5.639327355311252e-05,-3.3101623557740822e-06,5.4475363867823035e-05
-2.3022343157208525e-05,4.8287405661540106e-05,-2.3365626020677155e-06,5.3052212024340406e-05
-2.2782387532060966e-05,4.539518340607174e-05,3.0970873012847733e-06,5.284155486151576e-05
-2.352351111767348e-05,3.971104888478294e-05,8.756743227422703e-06,5.600560689345002e-05
-2.8889138775411993e-05,3.249291330575943e-05,4.762447133543901e-06,5.814569885842502e-05
-3.2680454751243815e-05,2.728777144511696e-05,-3.787433797697304e-06,5.616324415314011e-05
-3.477690916042775e-05,2.339915772608947e-05,-3.779395228775684e-06,5.403349132393487e-05
-3.7181482184678316e-05,2.0894538465654477e-05,1.8571963664726354e-06,5.7764005759963766e-05
-3.927359284716658e-05,1.9726618120330386e-05,8.333801133630914e-07,6.088909867685288e-05
-3.7764366425108165e-05,1.7753212887328118e-05,-8.250966857303865e-06,5.67793904338032e-05
-3.450248914305121e-05,1.9371535017853603e-05,-1.4083876521908678e-05,5.369499194785021e-05
-3.30392322211992e-05,2.830534322129097e-05,-1.228969995281659e-05,5.457809311337769e-05
-3.269807712058537e-05,3.094303610851057e-05,-7.423055649269372e-06,5.453948688227683e-05
-3.187981928931549e-05,2.18530713027576e-05,-3.430342985666357e-06,5.029295425629243e-05
-3.2413699955213815e-05,1.4204133549355902e-05,-1.5428131519001909e-06,4.936059849569574e-05
-3.394520535948686e-05,1.7927357475855388e-05,5.345830231817672e-07,5.426290590548888e-05
-3.344051219755784e-05,2.673583549039904e-05,3.992740403191419e-06,5.587481064139865e-05
-3.1173756724456325e-05,3.3207445085281506e-05,6.542530627484666e-06,5.3254858357831836e-05
-2.8563317755470052e-05,2.474250504747033e-05,6.389763257175218e-06,5.213434633333236e-05
-2.8595410185516812e-05,1.2084434274584055e-05,5.057172529632226e-06,5.211635652813129e-05
-2.9729771995334886e-05,8.638370672997553e-06,4.697714302892564e-06,5.4457239457406104e-05
-3.0575953132938594e-05,5.32713056600187e-06,3.5599921375251142e-06,6.154595030238852e-05
-2.8868469598819502e-05,-1.2369909200060647e-05,5.943488758930471e-06,6.264366675168276e-05
-2.9386241294560023e-05,-3.809215559158474e-05,9.640172720537521e-06,6.02634645474609e-05
-3.1471019610762596e-05,-4.215969966026023e-05,1.0106016816280317e-05,6.0984802985331044e-05
-3.217867197236046e-05,-2.3901655367808416e-05,8.627322131360415e-06,5.976719330647029e-05
-3.3204883948201314e-05,-8.471773753626621e-07,4.0782128962746356e-06,5.804571992484853e-05
-3.314050263725221e-05,1.890781641122885e-05,9.692088269730448e-07,5.4928776080487296e-05
-3.224458851036616e-05,3.6334724427433684e-05,1.342498762824107e-06,5.66496564715635e-05
-2.8378810384310782e-05,4.679887570091523e-05,6.426529125747038e-06,5.77957252971828e-05
-2.258939821331296e-05,5.046973819844425e-05,1.0158111763303168e-05,5.8269972214475274e-05
-2.0938336092513055e-05,5.0564620323712006e-05,7.091894076438621e-06,6.008476339047775e-05
-2.622890860948246e-05,5.141166184330359e-05,1.3267816711959313e-06,6.19392521912232e-05
-3.241151716792956e-05,5.8343372074887156e-05,-1.7353313523926772e-06,6.297264917520806e-05
-3.259676304878667e-05,7.315257971640676e-05,-6.7809860411216505e-06,6.426322943298146e-05
-2.4805563953123055e-05,9.30433307075873e-05,-1.6324867829098366e-05,6.499489973066375e-05
-1.655946471146308e-05,0.00010270348138874397,-2.5262885174015537e-05,6.403624138329178e-05
-1.3122003110765945e-05,9.333623893326148e-05,-2.8550502975122072e-05,6.468309584306553e-05
-1.2630626770260278e-05,6.700289668515325e-05,-2.8186865165480413e-05,6.679514626739547e-05
-1.1181829904671758e-05,3.683663817355409e-05,-2.761151517916005e-05,6.990879046497867e-05
-9.348448656965047e-06,1.4261317119235173e-05,-2.7016903914045542e-05,6.78590004099533e-05
-8.91589661478065e-06,3.384395540706464e-06,-2.5298500986536965e-05,6.093863703426905e-05
-8.49849220685428e-06,-4.118113793083467e-06,-2.1420675693661906e-05,5.266405423753895e-05
-9.30879559746245e-06,-1.229925692314282e-05,-1.610938306839671e-05,5.038059680373408e-05
-1.2797808267350774e-05,-1.8801383703248575e-05,-1.111333131120773e-05,5.1281713240314275e-05
-1.6299449271173216e-05,-2.1484664102899842e-05,-8.228887963923626e-06,5.060962575953454e-05
-2.1331830794224516e-05,-1.1863831787195522e-05,-4.249698577041272e-06,4.893599179922603e-05
-2.8788927011191845e-05,4.558195541903842e-06,-2.906316922235419e-06,4.6278833906399086e-05
-3.185869354638271e-05,1.3584726730186958e-05,-6.8487397584249265e-06,4.602552144206129e-05
-2.9154274670872837e-05,1.8888156773755327e-05,-1.3372613466344774e-05,4.6585442760260776e-05
-2.9196911782491952e-05,1.3719992239202838e-05,-1.7394831957062706e-05,4.903136141365394e-05
-3.26459739881102e-05,7.271836693689693e-06,-1.8113812984665856e-05,5.4919619287829846e-05
-3.2056643249234185e-05,1.5828949472052045e-05,-1.810266257962212e-05,5.7992172514786944e-05
-2.7442034479463473e-05,2.4550447051296942e-05,-1.885001256596297e-05,5.799662903882563e-05
-2.215985477960203e-05,2.2098236513556913e-05,-1.9415780116105452e-05,5.44835529581178e-05
-2.1873775040148757e-05,3.20770686812466e-06,-1.7953128917724825e-05,5.3308347560232505e-05
-2.5387680580024607e-05,-1.9208360754419118e-05,-1.3989975741424132e-05,5.4459749662783e-05
-2.927421337517444e-05,-2.763383963610977e-05,-1.1565394743229263e-05,5.524068183149211e-05
-3.08661547023803e-05,-1.4819265743426513e-05,-1.2049393262714148e-05,5.506131492438726e-05
-3.162424764013849e-05,5.102385784994112e-06,-1.2366157534415834e-05,5.1936222007498145e-05
-3.231860318919644e-05,2.1868496332899667e-05,-1.135008096753154e-05,4.74271182611119e-05
-3.4437383874319494e-05,3.14127973979339e-05,-1.0024114089901559e-05,4.588580486597493e-05
-3.757619560929015e-05,3.2920364901656285e-05,-1.0246156307402998e-05,4.7524132241960615e-05
-3.820470374193974e-05,2.8238309823791496e-05,-8.969128430180717e-06,4.9750193284126e-05
-3.251679663662799e-05,2.968671833514236e-05,-4.261883077560924e-06,5.25164941791445e-05
-2.5789118808461353e-05,3.99831187678501e-05,1.2530049389170017e-06,5.543965016840957e-05
-2.457949085510336e-05,4.9742353439796716e-05,1.6216820313275093e-06,6.015857798047364e-05
-2.499448601156473e-05,5.669339589076117e-05,-2.2780211565986974e-06,6.391182250808924e-05
-2.5053886929526925e-05,5.849060835316777e-05,-4.2537144508969504e-06,6.333764758892357e-05
-2.2689002435072325e-05,4.9434933316661045e-05,-4.268613338354044e-06,5.9213689382886514e-05
-1.8728820577962324e-05,3.270598244853318e-05,-2.139154503311147e-06,5.6033259170362726e-05
-1.859796975622885e-05,2.4815079086693004e-05,3.934633696189849e-06,5.41726294613909e-05
-2.377907367190346e-05,2.0532728740363382e-05,6.728302196279401e-06,5.0861821364378557e-05
-2.7030821001972072e-05,1.169787356047891e-05,2.8506583475973457e-06,4.787920261151157e-05
-2.6089997845701873e-05,-1.6319215774274198e-06,-1.1946129916395876e-06,5.123213486513123e-05
-2.5923960492946208e-05,-8.451200301351491e-06,-1.1859267488034675e-06,5.582628364209086e-05
-2.6962521587847732e-05,-8.35791706776945e-06,8.06585148893646e-07,5.8474455727264285e-05
-2.647392284416128e-05,-1.0003067473007832e-05,3.037061446775624e-07,5.808297646581195e-05
-2.632780888234265e-05,1.1282158993708435e-06,-2.988128017022973e-06,5.726873496314511e-05
-2.5857974833343178e-05,1.839048127294518e-05,-5.354363111109706e-06,5.951103230472654e-05
-2.6821993742487393e-05,2.206745557487011e-05,-4.304142294131452e-06,6.182659126352519e-05
-2.6146459276787937e-05,1.388286273140693e-05,-2.8767813091690186e-06,6.208007107488811e-05
-2.4278582714032382e-05,6.589066288142931e-06,-4.2304914131818805e-06,5.888987288926728e-05
-2.5307308533228934e-05,8.562207767681684e-06,-5.723207323171664e-06,5.484057328430936e-05
-2.7573449187912047e-05,6.2477056417264976e-06,-6.206532361829886e-06,5.408480137703009e-05
-2.785364085866604e-05,4.6109926188364625e-06,-5.691600563295651e-06,5.770278221461922e-05
-2.8821566957049072e-05,1.010262803902151e-05,-4.631430783774704e-06,6.116300937719643e-05
-3.257193020544946e-05,1.94419662875589e-05,-4.568081294564763e-06,6.0174192185513675e-05
-3.479750012047589e-05,2.3406815671478398e-05,-5.408354809333105e-06,5.658532245433889e-05
-3.5449811548460275e-05,2.9085123969707638e-05,-6.6739039539243095e-06,5.473849887493998e-05
-3.603459845180623e-05,4.613257624441758e-05,-7.535610166087281e-06,5.5978347518248484e-05
-3.717742583830841e-05,6.785627192584798e-05,-9.66287734627258e-06,5.87047943554353e-05
-3.628433478297666e-05,7.840969919925556e-05,-1.3352521818887908e-05,6.093213232816197e-05
-3.215880860807374e-05,7.096236367942765e-05,-1.7015725461533293e-05,6.227740232134238e-05
-2.808114186336752e-05,6.169982225401327e-05,-1.9015715224668384e-05,6.0925583966309205e-05
-2.8507845854619518e-05,6.532644329126924e-05,-1.984480877581518e-05,5.870164022780955e-05
-3.0370430977200158e-05,6.970185495447367e-05,-1.9958783013862558e-05,5.745291491621174e-05
-3.126934097963385e-05,5.380151924327947e-05,-1.8998191080754623e-05,5.3117735660634935e-05
-3.10251307382714e-05,3.9467704482376575e-05,-1.853851972555276e-05,4.909998824587092e-05
-2.554547791078221e-05,3.8478443457279354e-05,-2.2667258235742338e-05,4.888972398475744e-05
-2.1405676307040267e-05,3.218339043087326e-05,-2.454258719808422e-05,4.563423135550693e-05
-2.3104807041818276e-05,9.472601050219964e-06,-1.948894714587368e-05,4.193433414911851e-05
-2.293294164701365e-05,-2.14061547012534e-05,-1.3373101864999626e-05,4.3991436541546136e-05
-2.4666947865625843e-05,-4.2511157516855747e-05,-1.417362000211142e-05,4.845945295528509e-05
-2.951689384644851e-05,-4.978746801498346e-05,-2.058616519207135e-05,5.063455319032073e-05
-2.9409418857540004e-05,-4.076428376720287e-05,-2.1198482500039972e-05,5.1385599363129586e-05
-2.538646549510304e-05,-1.8894090317189693e-05,-1.6933407096075825e-05,5.502461499418132e-05
-2.345748907828238e-05,3.65108166988648e-06,-1.0119592843693681e-05,5.981561480439268e-05
-2.6963107302435674e-05,2.0780100385309197e-05,-5.07735057908576e-06,6.237033812794834e-05
-3.2624026061967015e-05,1.637605600990355e-05,-4.84835709357867e-06,6.318131636362523e-05
-3.121091140201315e-05,-6.4473988459212705e-06,-8.52362882142188e-06,6.430114444810897e-05
-2.6297871954739094e-05,-3.0858365789754316e-05,-8.397871170018334e-06,6.596474122488871e-05
-2.6535259166848846e-05,-4.0244965930469334e-05,-3.633752385212574e-06,6.503494660137221e-05
-3.0967195925768465e-05,-3.73412185581401e-05,1.5354401057265932e-06,6.0279806348262355e-05
-3.2496107451152056e-05,-2.7490154025144875e-05,3.4849094845412765e-06,5.708133176085539e-05
-2.9681397791136988e-05,-7.322687451960519e-06,1.9919718852179358e-06,5.882450568606146e-05
-2.806626071105711e-05,2.263908027089201e-05,1.0297391099811648e-06,6.24975873506628e-05
-2.8900160032208078e-05,4.796312714461237e-05,-4.338116013968829e-06,6.360874249367043e-05
-2.9165144951548427e-05,5.6659737310837954e-05,-2.2006413928465918e-05,6.245227996259928e-05
-2.516759923310019e-05,5.7545523304725066e-05,-5.07966433360707e-05,6.306283466983587e-05
-2.1366662622313015e-05,6.462062447099015e-05,-7.311041554203257e-05,6.626145477639511e-05
-2.3614369638380595e-05,7.790094969095662e-05,-7.724203169345856e-05,6.743138510501012e-05
-2.6879661163548008e-05,8.561474533053115e-05,-6.66874839225784e-05,6.505374039988965e-05
-2.500801747373771e-05,8.532257925253361e-05,-5.03528535773512e-05,6.394030788214877e-05
-2.071535163850058e-05,7.649009785382077e-05,-3.155311060254462e-05,6.274621409829706e-05
-1.8150161849916913e-05,6.895267870277166e-05,-1.4438483049161732e-05,5.876951399841346e-05
-1.8599523173179477e-05,8.035085920710117e-05,2.9900515983172227e-06,5.8277903008274734e-05
-1.9825349227176048e-05,0.00010262467549182475,1.7261119864997454e-05,6.287834548857063e-05
-1.822218473535031e-05,0.00010591795580694452,2.5739953343872912e-05,6.081370520405471e-05
-1.3988877981319092e-05,8.16811079857871e-05,2.545457573432941e-05,5.3160027164267376e-05
-1.2180072189948987e-05,5.5156702728709206e-05,1.597096343175508e-05,5.065458026365377e-05
-1.3138219401298556e-05,3.841884608846158e-05,5.396377673605457e-06,5.185947156860493e-05
-1.5863124644965865e-05,2.3186834368971176e-05,-1.587052429385949e-05,5.310275810188614e-05
-1.9313269149279222e-05,1.8502638340578414e-05,-4.33932218584232e-05,5.321525168255903e-05
-2.3802889700164087e-05,1.6538126146770082e-05,-5.7551504141883925e-05,5.0836966693168506e-05
-2.6766441806103103e-05,1.4472055227088276e-05,-5.208520087762736e-05,4.8092366341734305e-05
-2.497523746569641e-05,8.177558811439667e-06,-3.4951641282532364e-05,4.7282832383643836e-05
-2.3130744011723436e-05,-1.1371868822607212e-05,-1.7116504750447348e-05,4.858689499087632e-05
-2.305062116647605e-05,-3.372183709871024e-05,-3.598837110985187e-06,4.882822759100236e-05
-2.478170790709555e-05,-3.284457852714695e-05,1.0053859114123043e-05,4.699403507402167e-05
-2.744716221059207e-05,-7.000808636803413e-06,2.29136276175268e-05,4.566342613543384e-05
-2.9152761271689087e-05,1.154426809080178e-05,2.997328010678757e-05,4.5298114855540916e-05
-2.98914728773525e-05,5.243570740276482e-06,2.785881224554032e-05,4.712429654318839e-05
-3.111744445050135e-05,-8.138453267747536e-06,1.834102840803098e-05,5.096595850773156e-05
-3.450447184150107e-05,-1.0125150765816215e-05,7.639288014615886e-06,5.4752537835156545e-05
-3.8139274693094194e-05,1.2561831397306378e-07,-2.1657406250596978e-06,5.594309186562896e-05
-4.106587221031077e-05,1.8923270545201376e-05,-8.987977707874961e-06,5.273099668556824e-05
-4.285327668185346e-05,2.9843979064025916e-05,-9.937276445270982e-06,4.883907604380511e-05
-3.9729882701067254e-05,1.2256902664375957e-05,-5.587149644270539e-06,4.789994636666961e-05
-3.265535269747488e-05,-2.485586992406752e-05,-1.8098568261848413e-06,4.939067002851516e-05
-2.4964139811345376e-05,-5.070654151495546e-05,-1.7633939251027186e-06,4.947548222844489e-05
-1.921941111504566e-05,-4.8800102376844734e-05,-3.9726369323034305e-06,4.557748980005272e-05
-1.851972410804592e-05,-2.1076073608128354e-05,-2.569589696577168e-06,4.508093843469396e-05
-2.190161103499122e-05,9.906202649290208e-07,2.1273194761306513e-07,5.0493159506004304e-05
-2.2932061256142333e-05,-7.281239049916621e-06,3.514704474127939e-07,5.821835293318145e-05
-2.14970059460029e-05,-1.1821541193057783e-05,3.1316342301579425e-06,6.168975232867524e-05
-1.601207986823283e-05,3.733775156433694e-05,1.0770929293357767e-05,5.5478500144090503e-05
-1.3793201105727348e-05,0.0001101131783798337,1.666449497861322e-05,5.0749942602124065e-05
-1.9774401152972132e-05,0.00015569434617646039,1.623296702746302e-05,5.477699960465543e-05
-2.677443808352109e-05,0.000158413196913898,1.4984116205596365e-05,6.126396328909323e-05
-3.2299602025887e-05,0.0001243256265297532,1.3320143807504792e-05,6.490246596513316e-05
-2.974713424919173e-05,7.222640124382451e-05,9.489423973718658e-06,6.97007417329587e-05
-2.471182233421132e-05,2.281738125020638e-05,4.72791225547553e-06,7.214601646410301e-05
-2.326746289327275e-05,-1.3817211765854154e-06,-1.3148694506526226e-06,6.725672574248165e-05
-2.6213501769234426e-05,-1.540976199976285e-06,-5.847503416589461e-06,6.160373595776036e-05
-2.570257493061945e-05,4.643350166588789e-06,-1.116372732212767e-05,5.944102304056287e-05
-2.0312256310717203e-05,1.0162862054130528e-05,-1.7276975995628163e-05,6.080342427594587e-05
-1.6187514120247215e-05,1.8306553101865575e-05,-2.1942423700238578e-05,6.340225081657991e-05
-1.1103012184321415e-05,2.2279549739323556e-05,-2.4091881641652435e-05,6.859743734821677e-05
-6.931969892320922e-06,9.001219950732775e-06,-2.697462150536012e-05,7.074624591041356e-05
-1.1287482266197912e-05,-1.9889450413757004e-05,-3.1959010811988264e-05,6.677175406366587e-05
-2.5330225980724208e-05,-4.6611923607997596e-05,-3.6058361729374155e-05,6.336316437227651e-05
-3.565942824934609e-05,-5.5910597438924015e-05,-3.4355009120190516e-05,6.540854519698769e-05
-3.616814501583576e-05,-5.295516166370362e-05,-2.809607940434944e-05,6.917530117789283e-05
-3.096417640335858e-05,-4.8305133532267064e-05,-2.3821352442610078e-05,7.079583883751184e-05
-2.4495519028278068e-05,-2.8758213375112973e-05,-2.328729533473961e-05,6.836471584392712e-05
-2.237619446532335e-05,2.0139010302955285e-05,-2.4602260964456946e-05,6.321771070361137e-05
-2.9359705877141096e-05,7.004456711001694e-05,-2.6106126824743114e-05,5.889329258934595e-05
-3.6345918488223106e-05,7.730673678452149e-05,-2.8116412067902274e-05,5.568193955696188e-05
-3.4822398447431624e-05,2.893676355597563e-05,-2.7401320039643906e-05,5.7087181630777195e-05
-2.8502103305072524e-05,-4.042351065436378e-05,-2.4032155124587007e-05,6.344791472656652e-05
-2.496018714737147e-05,-7.860605546738952e-05,-2.1800713511765935e-05,6.94150585331954e-05
-2.84931647911435e-05,-6.66423948132433e-05,-2.308656257810071e-05,7.142250251490623e-05
-3.324652789160609e-05,-1.307990987697849e-05,-2.3801892893970944e-05,7.30106548871845e-05
-2.93671982944943e-05,4.1638129914645106e-05,-2.220352689619176e-05,7.360273593803868e-05
-2.6126355805899948e-05,5.824101026519202e-05,-2.0241586753400043e-05,7.396807632176206e-05
-2.4628043320262805e-05,4.468623228603974e-05,-1.966592390090227e-05,7.534536416642368e-05
-2.2437207007897086e-05,3.7351543141994625e-05,-1.8405902665108442e-05,7.505727262469009e-05
-2.133256202796474e-05,4.994692062609829e-05,-1.6210808098549023e-05,7.268400804605335e-05
-1.9231654732720926e-05,6.471272354247048e-05,-1.2834492736146785e-05,6.967133231228217e-05
-1.998083280341234e-05,7.609784370288253e-05,-1.1209446711291093e-05,6.556673906743526e-05
-1.942104245244991e-05,8.757691102800891e-05,-1.2965314454049803e-05,6.134629802545533e-05
-1.7265316273551434e-05,9.290114394389093e-05,-1.4164615095069166e-05,5.9147576394025236e-05
-1.6179117665160447e-05,9.073566616280004e-05,-1.2426670764398295e-05,5.635891648125835e-05
-1.7085878425859846e-05,9.00698869372718e-05,-8.823181815387215e-06,5.399977453635074e-05
-1.8783573977998458e-05,9.337149822385982e-05,-5.742064786318224e-06,5.419088120106608e-05
-2.1336190911824815e-05,9.504348417976871e-05,-4.991235527995741e-06,5.846732165082358e-05
-2.1491678126039915e-05,9.515923011349514e-05,-6.073525128158508e-06,6.246523116715252e-05
-2.3227652491186745e-05,9.306022548116744e-05,-7.769794137857389e-06,6.099687016103417e-05
-2.8356214897939935e-05,8.788202831055969e-05,-9.177088941214606e-06,6.087913425290026e-05
-3.234965697629377e-05,8.251234248746186e-05,-8.319103471876588e-06,6.645532994298264e-05
-3.171837670379318e-05,8.749464177526534e-05,-6.601397672056919e-06,7.199079118436202e-05
-2.8705882868962362e-05,0.00010284730524290353,-6.9824054662603885e-06,7.16548238415271e-05
-2.9147549867047928e-05,0.0001131717290263623,-6.143845894257538e-06,7.027166429907084e-05
-3.301058313809335e-05,0.00010775264672702178,-3.0838157272228273e-06,7.281710713868961e-05
-3.8341429899446666e-05,8.169529610313475e-05,-3.6079845813219436e-06,7.309302600333467e-05
-3.867128543788567e-05,4.740145232062787e-05,-7.2609632297826465e-06,6.646088877459988e-05
-3.0047867767279968e-05,2.1866622773814015e-05,-1.1310846275591757e-05,6.155005394248292e-05
-2.067421519313939e-05,-7.168690444814274e-06,-1.2171894013590645e-05,6.26291730441153e-05
-2.0636458430089988e-05,-4.468666884349659e-05,-1.2323200280661695e-05,6.29005953669548e-05
-2.3005311959423125e-05,-6.710200250381604e-05,-1.0493553418200463e-05,5.979878915240988e-05
-2.0758472601301037e-05,-7.146292045945302e-05,-6.119345925981179e-06,5.992501610307954e-05
-1.8713260942604393e-05,-7.591961184516549e-05,-3.65282062375627e-06,6.160798511700705e-05
-2.1222456780378707e-05,-7.405704673146829e-05,5.479446940626076e-07,5.815418262500316e-05
-2.5704321160446852e-05,-5.279941251501441e-05,4.039783107145922e-06,5.573740054387599e-05
-2.6588846594677307e-05,-1.9560378859750926e-05,4.715546765510226e-06,5.9141271776752546e-05
-2.465907164150849e-05,1.677909381214704e-06,5.178721949050669e-06,6.248072895687073e-05
-2.3317616069107316e-05,7.804459301041788e-07,4.920564606436528e-06,5.8552101108944044e-05
-2.3189168132375926e-05,9.752706318977289e-06,7.347620339714922e-06,5.337080074241385e-05
-1.951907506736461e-05,3.205219400115311e-05,9.203990884998348e-06,5.3009483963251114e-05
-1.3490372111846227e-05,4.816583532374352e-05,9.156203304883093e-06,5.486243389896117e-05
-1.0798277799040079e-05,4.745162368635647e-05,9.455277904635295e-06,5.6377470173174515e-05
-1.3846534784534015e-05,3.735486825462431e-05,8.100177183223423e-06,5.6810458772815764e-05
-2.0863191821263172e-05,2.5764369638636708e-05,5.214212706050603e-06,5.394826075644232e-05
-2.4523546017007902e-05,5.8581804296409246e-06,5.614178917312529e-06,5.11246471432969e-05
-2.3665272237849422e-05,-2.051798401225824e-05,8.97239715413889e-06,5.2082654292462394e-05
-2.1252624719636515e-05,-4.0557366446591914e-05,7.968649697431829e-06,5.639165101456456e-05
-2.327899528609123e-05,-4.586888098856434e-05,1.480742753301456e-06,6.147402746137232e-05
-3.008186467923224e-05,-3.8112943002488464e-05,-5.926894573349273e-06,6.222558295121416e-05
-3.5780576581601053e-05,-2.0175062672933564e-05,-9.801514352147933e-06,5.621159652946517e-05
-3.683486647787504e-05,-7.100463790266076e-06,-1.052921470545698e-05,4.918279591947794e-05
-3.3856853406177834e-05,-1.0764751095848624e-05,-1.118403179134475e-05,4.708971391664818e-05
-2.86712238448672e-05,-2.7782767574535683e-05,-1.2940211490786169e-05,5.251742186374031e-05
-2.459471215843223e-05,-3.306099824840203e-05,-1.174763838207582e-05,5.986295218463056e-05
-2.3380487618851475e-05,-1.1535692465258762e-05,-1.1324130355205853e-05,6.115655560279265e-05
-2.5991639631683938e-05,2.2082611394580454e-05,-1.3451060112856794e-05,5.95066012465395e-05
-2.791858969430905e-05,5.371514998842031e-05,-1.372717451886274e-05,5.623009201372042e-05
-2.5222521799150854e-05,7.299385470105335e-05,-1.206489196192706e-05,4.959485158906318e-05
-2.452805347274989e-05,6.926780042704195e-05,-9.830350791162346e-06,4.458703187992796e-05
-3.0678336770506576e-05,5.056705776951276e-05,-8.389894901483785e-06,4.882048597210087e-05
-3.879589348798618e-05,3.384115916560404e-05,-1.0459402801643591e-05,5.159219290362671e-05
-4.2323037632741034e-05,3.223500243620947e-05,-1.6488529581693e-05,4.837278538616374e-05
-4.1862640500767156e-05,4.6419547288678586e-05,-2.1951667804387398e-05,4.429841283126734e-05
-3.8025515095796436e-05,6.204858800629154e-05,-2.4865817977115512e-05,4.49755389126949e-05
-3.2549185561947525e-05,7.570550224045292e-05,-2.2109539713710546e-05,4.946119952364825e-05
-3.3667241950752214e-05,8.534252265235409e-05,-1.644899748498574e-05,5.1452636398607865e-05
-3.8711335946572945e-05,7.041255594231188e-05,-1.361228078167187e-05,5.3823932830709964e-05
-3.821244899882004e-05,2.3277525542653166e-05,-1.474411601520842e-05,5.765568494098261e-05
-3.246737833251245e-05,-2.285570553794969e-05,-1.6655796571285464e-05,5.910432810196653e-05
-2.879505518649239e-05,-3.0443365176324733e-05,-1.664587398408912e-05,5.838738798047416e-05
-2.953533476102166e-05,-4.178683411737438e-06,-1.3711081919609569e-05,5.76696838834323e-05
-2.944939842564054e-05,2.8028931410517544e-05,-1.1493501006043516e-05,5.4129239288158715e-05
-2.9903188988100737e-05,4.435224036569707e-05,-1.1694765817082953e-05,4.991442256141454e-05
-3.3008265745593235e-05,4.721767982118763e-05,-9.347944796900265e-06,5.156702900421806e-05
-3.528119850670919e-05,4.383100167615339e-05,-5.039079496782506e-06,5.7313231081934646e-05
-3.288579318905249e-05,3.646132245194167e-05,-2.752064801825327e-06,5.947272802586667e-05
-2.7907351977773942e-05,3.123148053418845e-05,-5.478145340021001e-06,5.731529381591827e-05
-2.4150444005499594e-05,3.133879727101885e-05,-1.2152284398325719e-05,5.697377855540253e-05
-2.168046194128692e-05,3.38018435286358e-05,-1.6813701222417876e-05,6.109350215410814e-05
-1.945599251484964e-05,4.3743235437432304e-05,-1.2596853594004642e-05,6.378419493557885e-05
-1.838721254898701e-05,5.893848356208764e-05,-5.412273367255693e-06,6.404667510651052e-05
-2.0768740796484053e-05,6.616709288209677e-05,-5.221602805249859e-06,6.321856926660985e-05
-2.5359466235386208e-05,6.207923433976248e-05,-1.019262163026724e-05,6.019159991410561e-05
-2.5344332243548706e-05,5.526897439267486e-05,-1.2461199730751105e-05,5.282889833324589e-05
-2.1291330995154567e-05,4.7733959945617244e-05,-1.2386817616061307e-05,5.0782415200956166e-05
-1.6271771528408863e-05,3.353031206643209e-05,-1.2726067325274926e-05,5.931411578785628e-05
-1.4998047845438123e-05,2.2580346922040917e-05,-1.5162851013883483e-05,6.476450653281063e-05
-1.6535521353944205e-05,1.583199446031358e-05,-1.7097865566029213e-05,6.431919609894976e-05
-1.8757667930913158e-05,2.243471135443542e-05,-1.8951684978674166e-05,6.650635623373091e-05
-2.3433598471456207e-05,3.961327820434235e-05,-2.3874805265222676e-05,7.060865755192935e-05
-2.9506722057703882e-05,4.219659240334295e-05,-2.6641617296263576e-05,7.063428347464651e-05
-2.9907809221185744e-05,2.76203118119156e-05,-2.6570922273094766e-05,6.856340041849762e-05
-2.3495442292187363e-05,1.9108176275040023e-05,-2.511096499802079e-05,6.980078615015373e-05
-1.9278806576039642e-05,1.8652694052434526e-05,-2.3906644855742343e-05,7.210210605990142e-05
-2.147273153241258e-05,1.5818257452338003e-05,-2.258714994241018e-05,7.187714800238609e-05
-2.745475467236247e-05,1.3199787645135075e-05,-1.9230217731092125e-05,6.950918032089248e-05
-2.8329272026894614e-05,1.7921660401043482e-05,-1.611375409993343e-05,6.627002585446462e-05
-2.4850869522197172e-05,2.8080934498575516e-05,-1.7393969756085426e-05,6.562912312801927e-05
-2.3089118258212693e-05,3.638107227743603e-05,-2.0324137949501164e-05,6.387425673892722e-05
-2.602145104901865e-05,3.7555339076789096e-05,-1.911267281684559e-05,5.896506263525225e-05
-2.7984886401100084e-05,2.900426261476241e-05,-1.357639212073991e-05,5.482532287715003e-05
-2.6663525204639882e-05,1.5196479580481537e-05,-7.798720616847277e-06,5.363059972296469e-05
-2.5566487238393165e-05,6.428244432754582e-06,-4.131286459596595e-06,5.5076972785172984e-05
-2.6430936486576684e-05,9.243926797353197e-06,-1.199491748593573e-06,5.512449570233002e-05
-2.6233215976390056e-05,1.772249015630223e-05,2.9677871680178214e-06,5.080238406662829e-05
-2.3802549549145624e-05,2.129288259311579e-05,5.800894086860353e-06,4.632556374417618e-05
-1.9058663383475505e-05,2.1078931240481324e-05,3.712849775183713e-06,4.246612297720276e-05
-1.6085501556517556e-05,2.3389438865706325e-05,2.6969617010763614e-06,4.273078593541868e-05
-1.8964026821777225e-05,2.3582400899613276e-05,8.095977136690635e-06,4.920277206110768e-05
-2.2955327949603088e-05,2.335334283998236e-05,1.382367372571025e-05,5.451426113722846e-05
-2.4591483452240936e-05,2.2385327611118555e-05,9.654600944486447e-06,5.707298987545073e-05
-2.270857476105448e-05,2.2859319869894534e-05,7.649178996871342e-07,6.0516002122312784e-05
-1.843853715399746e-05,3.636087058112025e-05,1.9005808553629322e-06,6.351890624500811e-05
-1.661686292209197e-05,4.883782457909547e-05,3.000962578880717e-06,6.543790368596092e-05
-2.1338426449801773e-05,4.031185744679533e-05,-2.148467217466532e-07,6.446883344324306e-05
-2.577867235231679e-05,2.74111662292853e-05,-2.35303969020606e-06,6.289527664193884e-05
-2.4451190256513655e-05,2.4699611458345316e-05,-7.26142161511234e-06,6.739953823853284e-05
-2.3248421712196432e-05,2.736374517553486e-05,-1.067503762897104e-05,6.783354183426127e-05
-2.3067979782354087e-05,2.360994585615117e-05,-1.1905173778359313e-05,6.694186595268548e-05
-1.944129508046899e-05,1.7922273400472477e-05,-1.0422421837574802e-05,6.76931522320956e-05
-1.6617503206362016e-05,9.67650703387335e-06,-1.0875402949750423e-05,6.772941560484469e-05
-1.8813823771779425e-05,-1.1468680440884782e-06,-1.4371976249094587e-05,6.642143853241578e-05
-2.1811234546476044e-05,-1.2464549399737734e-05,-1.646738928684499e-05,6.536435830639675e-05
-2.1388033928815275e-05,-2.1206747987889685e-05,-1.5494211766053922e-05,6.0937618400203064e-05
-2.1822510461788625e-05,-1.9429668100201525e-05,-1.4259773706726264e-05,5.454212077893317e-05
-2.257153573737014e-05,-1.0154253686778247e-06,-1.4138738151814323e-05,5.7114637456834316e-05
-2.1707804990001023e-05,2.372645030845888e-05,-1.4434487638936844e-05,6.361965643009171e-05
-2.0109846445848234e-05,4.083106978214346e-05,-1.5718880604254082e-05,6.458414281951264e-05
-2.1334448319976218e-05,5.2383831643965095e-05,-1.637081368244253e-05,5.8096346037928015e-05
-2.3844877432566136e-05,6.149154796730727e-05,-1.5724426702945493e-05,5.223086918704212e-05
-2.4699580535525456e-05,6.666991248494014e-05,-1.5356932635768317e-05,4.82583673147019e-05
-2.459010465827305e-05,6.518148438772187e-05,-1.5924169929348864e-05,4.731068474939093e-05
-2.5060069674509577e-05,5.7382658269489184e-05,-1.28701531139086e-05,4.93552433908917e-05
-2.824399598466698e-05,4.593925768858753e-05,-6.030874374118866e-06,5.089174737804569e-05
-3.1495288567384705e-05,3.194120290572755e-05,5.152940616426349e-07,5.1433784392429516e-05
-3.2371808629250154e-05,5.225911991146859e-06,1.1103097676823381e-06,5.269114990369417e-05
-2.9718992664129473e-05,-5.717230578738963e-06,-5.244689418759663e-06,5.025578138884157e-05
-2.4093978936434723e-05,8.325502676598262e-06,-1.0155355084862094e-05,4.7317294956883416e-05
-2.0689347365987487e-05,1.8409531548968516e-05,-9.71595090959454e-06,4.79251284559723e-05
-2.4515484255971387e-05,1.8508184439269826e-05,-4.216598426864948e-06,4.530342994257808e-05
-2.796916669467464e-05,1.6298083210131153e-05,-1.7301538264291594e-06,4.262616494088434e-05
-2.945226697192993e-05,1.4770803318242542e-05,-5.971565315121552e-06,4.533016181085259e-05
-3.249361179769039e-05,1.854426955105737e-05,-7.033979272819124e-06,4.765931225847453e-05
-3.524560816003941e-05,2.2717140382155776e-05,-5.4073861974757165e-06,5.2437906560953707e-05
-3.554766226443462e-05,1.8341061149840243e-05,-3.389344783499837e-06,5.598493589786813e-05
-3.4934353607241064e-05,1.3614631825475954e-05,-6.713758011755999e-06,5.596734627033584e-05
-3.69961308024358e-05,1.2313746083236765e-05,-1.2388068171276245e-05,5.586623592535034e-05
-3.66438616765663e-05,1.7097650925279595e-05,-1.6994379620882683e-05,5.419139051809907e-05
-3.235156327718869e-05,2.7780495656770654e-05,-2.1228410332696512e-05,5.3346724598668516e-05
-2.88876544800587e-05,2.7625035727396607e-05,-2.3545393560198136e-05,5.131617217557505e-05
-2.857696745195426e-05,1.5553017874481156e-05,-2.1894113160669804e-05,5.114498708280735e-05
-3.276848656241782e-05,2.159899850084912e-06,-1.8768265363178216e-05,5.4538344556931406e-05
-3.713649857672863e-05,-6.831814062024932e-06,-1.581116157467477e-05,6.126018706709146e-05
-3.7745539884781465e-05,-1.5350806279457174e-05,-1.2580632755998522e-05,6.647821282967925e-05
-3.547381129465066e-05,-1.9132943634758703e-05,-9.585719453752972e-06,7.037093018880114e-05
-3.437716804910451e-05,-1.3850084542355035e-05,-6.198305527504999e-06,7.256936078192666e-05
-3.409997225389816e-05,-6.632711574638961e-06,-7.76004799263319e-06,7.394493150059134e-05
-2.9199594791862182e-05,-3.2477789773111e-06,-2.2406355128623545e-05,7.601459947181866e-05
-2.003374720516149e-05,1.5848418115638196e-06,-4.754153997055255e-05,7.752687815809622e-05
-1.4368588381330483e-05,1.2738845725834835e-05,-6.141361518530175e-05,7.405519136227667e-05
-1.5236008039209992e-05,2.0957655578968115e-05,-5.7944813306676224e-05,6.713642505928874e-05
-1.9024426364921965e-05,2.3240665541379713e-05,-4.4199838157510385e-05,6.133769056759775e-05
-2.282732202729676e-05,2.715254777285736e-05,-2.6152749342145398e-05,6.0390710132196546e-05
-2.760142342594918e-05,4.083649400854483e-05,-1.0231617125100456e-05,6.250382284633815e-05
-3.120896144537255e-05,6.662642408628017e-05,3.514230684231734e-07,6.363748980220407e-05
-2.8068709070794284e-05,7.939452189020813e-05,7.027607807685854e-06,6.739309174008667e-05
-2.568859235907439e-05,6.562005000887439e-05,1.2938779946125578e-05,6.561807094840333e-05
-2.7368512746761553e-05,5.5365817388519645e-05,2.0081766706425697e-05,6.265979027375579e-05
-3.0609815439675e-05,6.261970702325925e-05,2.4063670934992842e-05,5.811680239276029e-05
-3.263829421484843e-05,7.719863788224757e-05,2.3045628040563315e-05,5.349455022951588e-05
-3.0491566576529294e-05,8.098229591269046e-05,1.76384983205935e-05,5.343070370145142e-05
-2.5816103516262956e-05,6.804594158893451e-05,9.849922207649797e-06,5.3270145144779235e-05
-2.116124778694939e-05,3.93470108974725e-05,9.768322115633055e-07,5.28248529008124e-05
-1.9603834516601637e-05,1.2056693776685279e-05,-8.527213140041567e-06,5.386187694966793e-05
-1.9816145140794106e-05,-2.1942787498119287e-06,-1.492102637712378e-05,6.082166873966344e-05
-1.931045153469313e-05,4.0200385242883385e-09,-1.6632500773994252e-05,6.42173909000121e-05
-1.7497966837254353e-05,4.27089935328695e-06,-1.3183162991481367e-05,5.8522116887615994e-05
-1.8303193428437226e-05,-4.7260854785236006e-07,-7.780037776683457e-06,5.166129267308861e-05
-1.9444267309154384e-05,-5.7004594964382704e-06,-5.842914106324315e-06,4.9876613047672436e-05
-1.8506107153370976e-05,4.504993285081582e-06,-7.045699931040872e-06,5.200610758038238e-05
-1.6408044757554308e-05,2.7447869797470048e-05,-7.91890579421306e-06,5.205329944146797e-05
-1.6849726307555102e-05,4.342622196418233e-05,-6.105620286689373e-06,4.6635890612378716e-05
-2.2220492610358633e-05,4.4857748434878886e-05,-2.4212915832322324e-06,3.871236549457535e-05
-2.784909520414658e-05,3.834753078990616e-05,-2.1906503206992056e-06,3.543494312907569e-05
-2.9893215469201095e-05,3.512558760121465e-05,-8.131100912578404e-06,3.741896216524765e-05
-2.766303441603668e-05,4.144559716223739e-05,-1.538008473289665e-05,4.330497540649958e-05
-2.3554361177957617e-05,5.490689363796264e-05,-1.564692684041802e-05,5.0438244215911254e-05
-2.383076753176283e-05,6.761811528122053e-05,-9.798468454391696e-06,5.455808059195988e-05
-2.9401559004327282e-05,7.296960393432528e-05,-7.869954970374238e-06,5.322210199665278e-05
-3.090831160079688e-05,5.8621637435862795e-05,-1.2855100067099556e-05,4.940564394928515e-05
-2.9831538995495066e-05,4.4566964788828045e-05,-2.0776195015059784e-05,4.826343501918018e-05
-2.8976315661566332e-05,4.31583212048281e-05,-2.5835528504103422e-05,4.341646854300052e-05
-2.619894985400606e-05,3.7156729376874864e-05,-2.8732061764458194e-05,3.9096925320336595e-05
-2.499627589713782e-05,-4.72666033601854e-06,-3.09883507725317e-05,4.329572038841434e-05
-2.615210905787535e-05,-6.064401532057673e-05,-2.5954226657631807e-05,4.5981119910720736e-05
-2.614129516587127e-05,-8.212067768909037e-05,-1.8466458641341887e-05,4.661555794882588e-05
-2.5972101866500452e-05,-7.01758181094192e-05,-1.3408379345491994e-05,5.185755071579479e-05
-2.5564993848092854e-05,-4.1294821130577475e-05,-6.186446171341231e-06,6.0278416640358046e-05
-2.5747714971657842e-05,-1.3067861800664105e-05,1.7262381106775138e-06,6.472982931882143e-05
-2.586722985142842e-05,6.623635044888943e-07,3.741599812201457e-06,6.260770896915346e-05
-2.3603590307175182e-05,6.255281277844915e-06,2.0267061699996702e-06,6.138166645541787e-05
-1.9916678866138682e-05,1.066800996341044e-05,9.403846092936874e-07,6.243678217288107e-05
-2.115479583153501e-05,1.6822201359900646e-05,1.9578928913688287e-06,6.276309431996197e-05
-2.3813061488908716e-05,2.604610926937312e-05,4.567204086924903e-06,6.428862252505496e-05
-2.3234735635924153e-05,3.350960469106212e-05,7.687325705774128e-06,6.97071009199135e-05
-2.278044485137798e-05,3.0675037123728544e-05,8.164243809005711e-06,7.617800292791799e-05
-2.3096436052583158e-05,2.372117160120979e-05,3.324992349007516e-06,7.760178414173424e-05
-2.383505125180818e-05,2.939005207736045e-05,-3.015899210367934e-06,7.126200216589496e-05
-2.2915739464224316e-05,4.504245225689374e-05,-5.32885951542994e-06,6.37614939478226e-05
-2.1993793779984117e-05,5.603482713922858e-05,-6.154189122753451e-06,6.1000624555163085e-05
-2.0767414753208868e-05,5.8066772908205166e-05,-8.155215255101211e-06,6.252194725675508e-05
-2.249323733849451e-05,5.773557859356515e-05,-1.0676280908228364e-05,6.563383794855326e-05
-2.966863576148171e-05,6.132447015261278e-05,-1.1995918612228706e-05,6.625874812016264e-05
-3.6683206417365e-05,6.083148764446378e-05,-7.44765748095233e-06,6.339049286907539e-05
-3.9856051444076e-05,4.3406602344475687e-05,-2.2514057036460144e-06,5.935399531153962e-05
-3.7825520848855376e-05,2.0280433091102168e-05,-5.303023954184027e-06,5.746938404627144e-05
-3.483323962427676e-05,7.991377060534433e-06,-9.617549949325621e-06,5.8558740420266986e-05
-3.3298751077381894e-05,1.219671503349673e-05,-7.93312574387528e-06,6.324666173895821e-05
-3.226022090530023e-05,1.947495729837101e-05,-8.163498023350257e-06,6.516726716654375e-05
-3.739691965165548e-05,1.664194860495627e-05,-1.203245028591482e-05,6.390583439497277e-05
-3.95129100070335e-05,-3.4767053875839338e-06,-1.4962656678108033e-05,6.622097862418741e-05
-3.5292086977278814e-05,-2.459076131344773e-05,-1.619580689293798e-05,6.766919977962971e-05
-3.305098653072491e-05,-2.4497521735611372e-05,-1.6562398741371e-05,6.730968743795529e-05
-3.587594619602896e-05,-1.583327139087487e-05,-1.5868663467699662e-05,6.439153366954997e-05
-3.8173886423464864e-05,-4.364235792309046e-06,-1.719765532470774e-05,5.6626075092935935e-05
-3.5638960980577394e-05,1.617821544641629e-05,-1.9271257770014927e-05,4.823883864446543e-05
-3.173312506987713e-05,4.3484145862748846e-05,-1.7046315406332724e-05,4.839900793740526e-05
-2.8220421881997027e-05,6.535666761919856e-05,-1.2785989383701235e-05,5.521541243069805e-05
-2.7021043933928013e-05,6.878652493469417e-05,-1.2383025932649616e-05,5.7743131037568673e-05
-2.844888331310358e-05,5.8381087001180276e-05,-1.4411223673960194e-05,5.2286162826931104e-05
-2.8279671823838726e-05,4.375427670311183e-05,-1.62966189236613e-05,4.492977313930169e-05
-2.479034628777299e-05,3.251228554290719e-05,-1.698845335340593e-05,4.3492615077411756e-05
-2.2963740775594488e-05,2.2081123461248353e-05,-1.7349842892144807e-05,4.9947164370678365e-05
-2.3244559997692704e-05,1.6139374565682374e-05,-1.9809953300864436e-05,5.8372534113004804e-05
-2.4406914235441945e-05,1.85544431587914e-05,-2.1684638340957463e-05,5.816641714773141e-05
-2.2640402676188387e-05,2.1693069356842898e-05,-2.0788593246834353e-05,5.074514410807751e-05
-1.7836397091741674e-05,1.523972605355084e-05,-1.8693952370085754e-05,4.331161835580133e-05
-1.2888521268905606e-05,-3.1941842735250248e-06,-1.569090636621695e-05,4.18229064962361e-05
-1.302397322433535e-05,-2.130929169652518e-05,-1.2340165085333865e-05,4.3318992538843304e-05
-1.7891958123072982e-05,-3.274282062193379e-05,-9.588723514752928e-06,4.52382919320371e-05
-2.092460636049509e-05,-4.2359486542409286e-05,-7.180093234637752e-06,5.141114888829179e-05
-1.676582542131655e-05,-5.1323968364158645e-05,-7.193354122136952e-06,5.697949382010847e-05
-8.801842341199517e-06,-4.7978061047615483e-05,-6.297729669313412e-06,5.4831220040796325e-05
-7.917857146821916e-06,-3.1529463740298524e-05,-2.788520532703842e-06,4.8901685659075156e-05
-1.327002337347949e-05,-9.929773113981355e-06,-3.3532612633280223e-06,4.662697756430134e-05
-1.6690040865796618e-05,1.1622542842815164e-05,-9.282547580369283e-06,5.198541475692764e-05
-1.8581289623398334e-05,2.3548211174784228e-05,-1.5292736861738376e-05,6.079072045395151e-05
-2.1755879060947336e-05,2.3514558051829226e-05,-1.3421288713288959e-05,6.4183070207946e-05
-2.3429873181157745e-05,2.3965008949744515e-05,-4.791488663613563e-06,6.264663534238935e-05
-2.627378489705734e-05,3.1998788472265005e-05,1.2054376838932512e-06,6.109992682468146e-05
-2.853256773960311e-05,4.012593126390129e-05,3.376274435140658e-06,6.067082722438499e-05
-2.5776993425097317e-05,4.222400821163319e-05,-1.2376559652693686e-06,5.989012061036192e-05
-2.270460572617594e-05,4.2470055632293224e-05,-4.269733835826628e-06,6.19585916865617e-05
-2.047176894848235e-05,4.502916272031143e-05,-7.346924917328579e-07,6.699570803903043e-05
-1.9748460545088165e-05,5.274799696053378e-05,1.6990449012155295e-06,6.745587597833946e-05
-1.8716662452789024e-05,5.915097790420987e-05,6.564733325831185e-07,6.596260209335014e-05
-1.7304195353062823e-05,5.650015373248607e-05,3.132810206807335e-07,6.676077464362606e-05
-1.721787339192815e-05,5.228799273027107e-05,1.2800097692888812e-06,7.12260152795352e-05
-1.814992901927326e-05,4.820584581466392e-05,-2.2553310827788664e-06,7.605761493323371e-05
-2.1492300220415927e-05,4.5184333430370316e-05,-9.711940947454423e-06,7.62749114073813e-05
-2.4010538254515268e-05,4.769044608110562e-05,-1.6096262697828934e-05,7.24669880582951e-05
-2.2795955374022014e-05,5.1964929298264906e-05,-1.7373171431245282e-05,6.703797407681122e-05
-2.0798806872335263e-05,5.544738087337464e-05,-1.556009374326095e-05,6.37720586382784e-05
-2.2982139853411354e-05,5.375023101805709e-05,-1.5007816728029866e-05,6.250110163819045e-05
-2.3395046810037456e-05,4.863829235546291e-05,-1.6474239600938745e-05,6.247887358767912e-05
-2.0497040168265812e-05,4.60558439954184e-05,-1.7632843082537875e-05,6.374340591719374e-05
-1.96162291103974e-05,4.534638355835341e-05,-1.5814446669537574e-05,6.538016168633476e-05
-1.9398974473006092e-05,4.281997462385334e-05,-1.0674461009330116e-05,6.309047603281215e-05
-1.7920523532666266e-05,4.587048169923946e-05,-5.503171450982336e-06,6.238572677830234e-05
-1.5301855455618352e-05,5.4490523325512186e-05,5.870210202374437e-07,6.759995449101552e-05
-1.4479623132501729e-05,5.044936915510334e-05,3.264776523792534e-06,6.832569488324225e-05
-1.9555011022021063e-05,3.7551973946392536e-05,-1.3010147768000024e-06,6.508079241029918e-05
-2.408287582511548e-05,3.138994361506775e-05,-4.493303094932344e-06,6.515590939670801e-05
-2.5387129426235333e-05,2.8500682674348354e-05,-4.833377261093119e-06,6.051372110960074e-05
-2.7561629394767806e-05,2.6550376787781715e-05,-6.306769591901684e-06,5.6614553614053875e-05
-2.962175312859472e-05,2.044843313342426e-05,-4.270239060133463e-06,5.987064287182875e-05
-3.327056401758455e-05,1.15827015179093e-05,-1.6068999002527562e-06,6.41976876067929e-05
-3.9712831494398415e-05,9.10894505068427e-06,-4.0369056364397693e-07,6.784193101339042e-05
-4.721678124042228e-05,1.2163323845015839e-05,-1.7231668607564643e-06,6.829860649304464e-05
-4.989070657757111e-05,2.0667468561441638e-05,-6.8059553086641245e-06,6.562391354236752e-05
-4.54035252914764e-05,2.5036613806150854e-05,-1.209634319820907e-05,6.299962115008384e-05
-4.27508530265186e-05,2.640597813297063e-05,-1.4530993212247267e-05,6.0865615523653105e-05
-4.178303788648918e-05,3.234353425796144e-05,-1.2536599570012186e-05,5.826364576932974e-05
-3.917465073755011e-05,4.2390449380036443e-05,-1.018998955260031e-05,5.564154707826674e-05
-3.782710336963646e-05,5.2765295549761504e-05,-9.488662726653274e-06,4.9850008508656174e-05
-3.753489727387205e-05,5.40519758942537e-05,-9.352304914500564e-06,4.5013810449745506e-05
-3.720907625393011e-05,4.631528281606734e-05,-6.839296474936418e-06,4.666669701691717e-05
-3.5992765333503485e-05,3.997126259491779e-05,-5.37655205334886e-06,4.914130477118306e-05
-3.46715169143863e-05,3.730021489900537e-05,-5.905390025873203e-06,4.82119430671446e-05
-3.356023444212042e-05,3.6405963328434154e-05,-6.166167622723151e-06,4.814070416614413e-05
-3.2513929909328e-05,3.4322638384765014e-05,-5.828206212754594e-06,4.7880639613140374e-05
-2.95953250315506e-05,2.4337050490430556e-05,-6.2919525589677505e-06,4.709240238298662e-05
-2.780353679554537e-05,7.714841558481567e-06,-6.779815521440469e-06,4.7256140533136204e-05
-2.822799069690518e-05,-2.666392902028747e-06,-5.144802798895398e-06,4.876748062088154e-05
-2.7481275537866168e-05,-2.342832203794387e-06,-2.019972043854068e-06,5.09258134115953e-05
-2.6590852939989418e-05,7.4016379585373215e-06,-2.9640666525665438e-06,5.5273736506933346e-05
-2.7154535928275436e-05,2.0446732378331944e-05,-1.008880281005986e-05,6.26472246949561e-05
-2.725879858189728e-05,2.6032363166450523e-05,-1.6034862710512243e-05,6.530767859658226e-05
-2.7433761715656146e-05,3.6990018998039886e-05,-1.5340719983214512e-05,6.551276601385325e-05
-2.729821062530391e-05,5.8699755754787475e-05,-1.2409414921421558e-05,6.447796477004886e-05
-2.6524048735154793e-05,8.429632725892588e-05,-1.3004979336983524e-05,6.209318235050887e-05
-2.375393705733586e-05,0.00010488453699508682,-1.2613325452548452e-05,6.736213981639594e-05
