-5.7382119848625734e-05,-5.6409706303384155e-05,-2.3752758352202363e-05,1.3280548955663107e-05
-5.1805927796522155e-05,-9.073015826288611e-05,-2.6661296942620538e-05,9.478127140027937e-06
-4.6352124627446756e-05,-7.186122820712626e-05,-2.7524811230250634e-05,1.2704700566246174e-05
-4.313907629693858e-05,-1.5914001778583042e-05,-1.9759607312153094e-05,1.5480136426049285e-05
-4.353745680418797e-05,2.9243501558084972e-05,-1.3003603271499742e-05,1.4106963135418482e-05
-4.553290636977181e-05,4.999333759769797e-05,-1.4243517398426775e-05,1.2454852367227431e-05
-4.178889139438979e-05,4.4185166188981384e-05,-1.640550726733636e-05,1.6406118447775953e-05
-3.468605427769944e-05,1.2621923815459013e-05,-1.6520409189979546e-05,1.8727549104369245e-05
-3.602708602556959e-05,-5.974417945253663e-06,-1.668014192546252e-05,1.5276940757757984e-05
-4.479159906622954e-05,5.659978342009708e-06,-1.84956534212688e-05,1.1941043339902535e-05
-4.9384936573915184e-05,1.797890399757307e-05,-2.4619697796879336e-05,1.6234354916377924e-05
-4.421237463247962e-05,1.1817867743957322e-05,-3.4090258850483224e-05,2.5682926207082346e-05
-3.4584863897180185e-05,-3.7018694456492085e-06,-4.1407227399758995e-05,3.622322401497513e-05
-2.4555349227739498e-05,-7.88564875620068e-07,-4.182571137789637e-05,4.536567212198861e-05
-1.5808598618605174e-05,3.983703936683014e-05,-3.620409552240744e-05,5.2421783038880676e-05
-8.740425073483493e-06,9.330984903499484e-05,-2.7101657906314358e-05,5.478554157889448e-05
-8.501368029101286e-06,0.00013456698798108846,-1.824022547225468e-05,4.9029204092221335e-05
-1.57837312144693e-05,0.00018060598813463002,-1.4353775441122707e-05,3.932848267140798e-05
-3.123804344795644e-05,0.00023193255765363574,-1.4893028492224403e-05,3.0382801924133673e-05
-4.706368054030463e-05,0.00023172525106929243,-1.529632936581038e-05,2.393227805441711e-05
-5.578049967880361e-05,0.00014198102871887386,-1.6057245375122875e-05,2.1402142010629177e-05
-5.7541357818990946e-05,2.1023586668889038e-05,-2.2328647901304066e-05,2.4005323211895302e-05
-5.6275235692737624e-05,-3.426483817747794e-05,-3.260010271333158e-05,2.479603972460609e-05
-5.959439658909105e-05,-3.200952778570354e-05,-3.724296038853936e-05,2.142506855307147e-05
-6.557637971127406e-05,-5.3879961342317984e-05,-3.857828050968237e-05,1.9943847291870043e-05
-6.76699637551792e-05,-0.00010746758198365569,-4.4118631194578484e-05,2.419912016193848e-05
-6.417553231585771e-05,-0.00015509779041167349,-4.853245263802819e-05,3.2568073947913945e-05
-5.250481262919493e-05,-0.00016322670853696764,-4.678939512814395e-05,4.217224341118708e-05
-4.457016984815709e-05,-0.0001091109006665647,-3.349181133671664e-05,4.496773181017488e-05
-4.887991599389352e-05,-9.975356078939512e-06,-9.375879017170519e-06,3.0815124773653224e-05
-6.076604768168181e-05,8.24124290375039e-05,8.893565791368019e-06,1.9543351754691685e-06
-7.843804633012041e-05,0.00012377132952678949,6.0802667576354e-06,-5.586314273386961e-06
-9.78848256636411e-05,0.00011699288006639108,-1.544519909657538e-05,1.549206172057893e-05
-0.00010822626063600183,0.00011021923273801804,-3.5719403967959806e-05,3.555245712050237e-05
-0.00010364491754444316,0.0001319291040999815,-3.908345024683513e-05,3.773862772504799e-05
-9.234634489985183e-05,0.00017384976672474295,-3.1384683097712696e-05,2.5149411158054136e-05
-8.390362199861556e-05,0.00020174411474727094,-2.789114114420954e-05,1.6573938410147093e-05
-8.304857328766957e-05,0.0001842810888774693,-3.289864253019914e-05,1.880381205410231e-05
-8.633699326310307e-05,0.0001458198094042018,-3.627078694989905e-05,2.531834070396144e-05
-8.624689507996663e-05,0.00013076208415441215,-3.1612573366146535e-05,2.6948902814183384e-05
-8.045358117669821e-05,0.00013993163884151727,-1.4292986634245608e-05,1.8015887690125965e-05
-7.04836638760753e-05,0.00014809415733907372,1.4103939975029789e-05,3.7759543829452014e-06
-5.612778477370739e-05,0.00015098071889951825,2.8789192583644763e-05,1.8342404928262113e-06
-4.3820076825795695e-05,0.00015372101916000247,7.648361133760773e-06,1.935149157361593e-05
-3.799013575189747e-05,0.00015314799384213984,-2.926216802734416e-05,3.844899401883595e-05
-3.5858956834999844e-05,0.00014323421055451035,-4.7692978114355356e-05,4.2747415136545897e-05
-3.4155214962083846e-05,0.0001106242198147811,-4.1542210965417325e-05,3.4046050132019445e-05
-3.154222940793261e-05,3.350342012709007e-05,-2.2745318347006105e-05,1.8358770830673166e-05
-3.228936475352384e-05,-8.35187456686981e-05,-1.118936143029714e-05,4.691728918260196e-06
-3.714744889293797e-05,-0.00019358802819624543,-2.6450990844750777e-05,1.804181238185265e-06
-3.243259197915904e-05,-0.0002534487284719944,-4.8541114665567875e-05,1.0442839993629605e-05
-1.8428640032652766e-05,-0.0002475240908097476,-5.002117177355103e-05,2.0055165805388242e-05
-8.342238288605586e-06,-0.00018987074145115912,-3.9826463762437925e-05,2.551845864218194e-05
-2.1917048798059113e-06,-0.00012118401355110109,-3.288940206402913e-05,3.142697460134514e-05
-6.736024715792155e-07,-7.196560909505934e-05,-3.605353049351834e-05,3.487785215838812e-05
-1.748676083934697e-07,-5.796271580038592e-05,-4.3140324123669416e-05,3.521388134686276e-05
-1.4199694078342873e-06,-7.428439130308107e-05,-4.148216248722747e-05,3.075005952268839e-05
-8.539223017578479e-06,-8.610592340119183e-05,-3.776570883928798e-05,2.1021271095378324e-05
-1.680513196333777e-05,-6.579634646186605e-05,-4.027185423183255e-05,1.2076606253685895e-05
-3.1172356102615595e-05,-9.117447007156443e-06,-4.241484930389561e-05,6.191862212290289e-06
-5.061850242782384e-05,8.5482417489402e-05,-4.331852323957719e-05,4.977511707693338e-06
-6.905557529535145e-05,0.00017572160868439823,-4.320027073845267e-05,6.362294698192272e-06
-8.08884869911708e-05,0.00020025807316415012,-4.098327917745337e-05,1.1557962352526374e-05
-8.567731856601313e-05,0.00017105444567278028,-3.441205626586452e-05,1.9489976693876088e-05
-8.465605787932873e-05,0.00013551261508837342,-2.756454523478169e-05,2.4148475858964957e-05
-7.393425767077133e-05,0.00010592133912723511,-2.097691503877286e-05,2.450705142109655e-05
-5.769601193605922e-05,7.902373181423172e-05,-1.7960181139642373e-05,2.1254567400319502e-05
-5.188402428757399e-05,6.313689664239064e-05,-1.902020267152693e-05,1.593554588907864e-05
-5.903869168832898e-05,5.867140498594381e-05,-2.2749472918803804e-05,1.2647316907532513e-05
-6.49001231067814e-05,5.402522219810635e-05,-2.7593474442255683e-05,1.2401348612911534e-05
-6.417783151846379e-05,4.8970850912155584e-05,-2.8348329578875564e-05,1.3022001439821906e-05
-5.85914749535732e-05,4.798603185918182e-05,-2.3997481548576616e-05,1.540845914860256e-05
-4.979926234227605e-05,4.64785989606753e-05,-1.803523991839029e-05,1.9091747162747197e-05
-4.015120066469535e-05,4.2087565816473216e-05,-1.505136697232956e-05,2.1799189198645763e-05
-3.394314262550324e-05,3.453725003055297e-05,-1.3456667147693224e-05,2.4726276024011895e-05
-3.186270623700693e-05,1.0136149285244755e-05,-1.1278201782261021e-05,2.862801557057537e-05
-3.0056567993597127e-05,-3.602265496738255e-05,-8.441121281066444e-06,2.988946835102979e-05
-2.8840144295827486e-05,-6.877883424749598e-05,-1.2239618627063464e-05,2.779144051601179e-05
-3.3776243071770296e-05,-4.9001057050190866e-05,-1.888980477815494e-05,2.5583636670489796e-05
-4.726001134258695e-05,8.479852112941444e-06,-2.092977229040116e-05,2.2683518182020634e-05
-6.047919669072144e-05,5.666471770382486e-05,-2.0086814402020536e-05,2.014594792854041e-05
-6.245550321182236e-05,7.89870391599834e-05,-1.9902998246834613e-05,1.7552025383338332e-05
-6.213287269929424e-05,7.950881263241172e-05,-1.806534237402957e-05,1.6757810954004526e-05
-6.210976425791159e-05,7.518794882344082e-05,-1.311284358962439e-05,2.034598401223775e-05
-6.131605186965317e-05,6.391026545315981e-05,-1.1380408068362158e-05,3.0135704946587794e-05
-5.786069596069865e-05,3.288788866484538e-05,-1.502613304182887e-05,4.270358112989925e-05
-5.3359271987574175e-05,-1.4229754015104845e-06,-1.3963066521682777e-05,4.726524275611155e-05
-4.743248791783117e-05,-2.6025014449260198e-05,-7.253451258293353e-06,4.4263833842705935e-05
-3.9842838305048645e-05,-4.8459467507200316e-05,8.57912436913466e-06,2.4041937649599276e-05
-3.578519317670725e-05,-7.572182221338153e-05,2.2685821022605523e-05,-7.70349106460344e-06
-3.4814052924048156e-05,-9.255762415705249e-05,1.0447754902997985e-05,-1.793579758668784e-05
-4.0824896132107824e-05,-8.170217188308015e-05,-2.0484831111389212e-05,6.972108167246915e-06
-5.018619049224071e-05,-5.1709295803448185e-05,-5.2387596952030435e-05,4.203818389214575e-05
-5.4292682762024924e-05,-2.3270327801583335e-05,-6.971578841330484e-05,5.5166849051602185e-05
-5.4254905990092084e-05,-6.6260963649256155e-06,-5.624992627417669e-05,3.781983468797989e-05
-5.3572413889924064e-05,-2.279098225699272e-07,-2.6015697585535236e-05,8.120230631902814e-06
-4.9345930165145546e-05,4.5980073082318995e-06,-1.3114123248669785e-05,-3.822503458650317e-06
-4.7041623474797234e-05,2.4999129891511984e-05,-2.4637927708681673e-05,1.2123719898227137e-05
-5.167251583770849e-05,6.98250878485851e-05,-4.0337679820368066e-05,3.639536225819029e-05
-6.055706035112962e-05,0.00011741455091396347,-4.5225828216644004e-05,4.682243161369115e-05
-6.640404899371788e-05,0.0001428661635145545,-3.942260082112625e-05,4.112102396902628e-05
-6.656487676082179e-05,0.00015131448162719607,-2.9051470846752636e-05,2.8319063858361915e-05
-6.060733358026482e-05,0.00015557142614852637,-2.30036584980553e-05,2.2878735762787983e-05
-5.1682713092304766e-05,0.0001541149540571496,-2.793844760162756e-05,2.581823900982272e-05
-4.6536621084669605e-05,0.00016196216165553778,-3.914090484613553e-05,2.5854684281512164e-05
-4.530417936621234e-05,0.00017814604507293552,-4.1185190639225766e-05,2.307073191332165e-05
-4.69428559881635e-05,0.00016184984997380525,-3.598616967792623e-05,1.9477336536510848e-05
-4.7035355237312615e-05,0.00012185230298200622,-3.2737669243942946e-05,1.6351241356460378e-05
-4.578034713631496e-05,8.788625564193353e-05,-2.811234662658535e-05,1.9397610230953433e-05
-4.5880296966060996e-05,4.571746103465557e-05,-2.592042801552452e-05,2.4859726181603037e-05
-4.362935578683391e-05,-1.5399478797917254e-05,-2.672293339855969e-05,2.399158984189853e-05
-4.676091339206323e-05,-7.480161002604291e-05,-2.7603637136053294e-05,2.2898198949405923e-05
-5.393524043029174e-05,-0.00011124700540676713,-3.16911973641254e-05,2.3466469428967685e-05
-5.529627742362209e-05,-0.00011797211482189596,-3.2669682695996016e-05,2.0533525457722135e-05
-5.469845564221032e-05,-9.099111775867641e-05,-2.7997410143143497e-05,2.1618479877361096e-05
-5.6925477110780776e-05,-4.9914091505343094e-05,-2.232605947938282e-05,2.62343673966825e-05
-6.143187783891335e-05,-1.603542477823794e-05,-2.08130877581425e-05,3.205055691068992e-05
-6.260910595301539e-05,9.405011951457709e-06,-2.2165315385791473e-05,3.2205523893935606e-05
-5.710435289074667e-05,4.7184275899780914e-05,-2.556991057645064e-05,2.929075162683148e-05
-5.3796986321685836e-05,9.927331848302856e-05,-2.8446547730709426e-05,2.743279947026167e-05
-5.814995529362932e-05,0.0001370910758851096,-3.027686216228176e-05,2.4806686269585043e-05
-6.040612424840219e-05,0.000150208332343027,-3.086940705543384e-05,2.4313707399414852e-05
-5.338055780157447e-05,0.0001538860087748617,-2.8170759833301418e-05,2.6491772587178275e-05
-4.636236189980991e-05,0.0001482482475694269,-2.519448025850579e-05,2.8156429834780283e-05
-5.1110979256918654e-05,9.962994226953015e-05,-2.4018188923946582e-05,2.8250513423699886e-05
-5.8952828112524e-05,4.101749709661817e-06,-2.6231964511680417e-05,2.9027771233813837e-05
-5.487718590302393e-05,-8.59715582919307e-05,-3.0467532269540243e-05,2.6417737899464555e-05
-4.363062544143759e-05,-0.00011345338134560734,-3.2370895496569574e-05,2.0218472855049185e-05
-3.991624907939695e-05,-7.205695874290541e-05,-3.0270271963672712e-05,1.6646010408294387e-05
-4.373311094241217e-05,-6.267731805564836e-06,-2.9109223760315217e-05,2.106057399942074e-05
-4.770414307131432e-05,2.2318166884360835e-05,-2.9376935344771482e-05,2.7513582608662546e-05
-4.9896414566319436e-05,5.161957687960239e-07,-2.7562737159314565e-05,2.8607619242393412e-05
-5.092241190141067e-05,-2.0832752852584235e-05,-2.5237819500034675e-05,2.6516288926359266e-05
-5.175140540814027e-05,-2.803756842695293e-06,-2.6243844331474975e-05,2.7424004656495526e-05
-5.164372123545036e-05,3.1099516490940005e-05,-2.832101017702371e-05,3.0740680813323706e-05
-4.85460514028091e-05,6.003287126077339e-05,-2.957281503768172e-05,3.6502282455330715e-05
-4.6497956645907834e-05,7.471554999938235e-05,-2.8691094485111535e-05,3.536014264682308e-05
-4.732663001050241e-05,6.497037975350395e-05,-2.4976287022582255e-05,2.8676862712018192e-05
-4.887239265372045e-05,4.928242924506776e-05,-1.8709035430219956e-05,2.409407534287311e-05
-4.654755684896372e-05,4.686347892857157e-05,-1.5658240954508074e-05,2.09324607567396e-05
-3.976598600274883e-05,5.52606325072702e-05,-1.579385389050003e-05,1.8615502995089628e-05
-3.2783289498183876e-05,4.7689765779068694e-05,-1.4358483895193785e-05,1.7810167264542542e-05
-2.9253074899315834e-05,2.8614911570912227e-05,-1.647232420509681e-05,2.1086007109261118e-05
-2.934787880803924e-05,1.9730150597752072e-05,-2.587886956462171e-05,2.4382301489822567e-05
-2.9154563890188e-05,2.0760888219228946e-05,-3.354286673129536e-05,2.2328000341076404e-05
-3.009167812706437e-05,2.7336378479958512e-05,-3.423504676902667e-05,1.4316863598651253e-05
-3.50761110894382e-05,3.6402008845470846e-05,-3.0391347536351532e-05,1.2935403901792597e-05
-3.87556865462102e-05,3.5949957236880437e-05,-2.2590482330997474e-05,2.369775393162854e-05
-3.747668597497977e-05,1.4872496649331879e-05,-1.6080324712675065e-05,3.7116937164682895e-05
-3.723110057762824e-05,-1.34854335556156e-05,-1.3723510164709296e-05,4.1605293517932296e-05
-4.0712813643040136e-05,-3.0498722480842844e-05,-1.3795612176181749e-05,3.7334270018618554e-05
-4.177602386334911e-05,-3.5923938412452117e-05,-2.0290101019782014e-05,3.6064055166207254e-05
-3.997647581854835e-05,-4.393394920043647e-05,-3.8393867725972086e-05,4.245037052896805e-05
-3.938140071113594e-05,-6.335214857244864e-05,-5.161917579243891e-05,4.7067729610716924e-05
-4.0214206819655374e-05,-8.475767390336841e-05,-4.612421980709769e-05,4.10922548326198e-05
-3.9203037886181846e-05,-7.748416828690097e-05,-3.3391577744623646e-05,3.192239819327369e-05
-3.859382923110388e-05,-2.5891700715874322e-05,-2.7876174499397166e-05,3.031226879102178e-05
-4.0647617424838245e-05,4.2050476622534916e-05,-3.136833038297482e-05,3.097746957791969e-05
-4.217143577989191e-05,9.142262570094317e-05,-3.2996533263940364e-05,2.545356073824223e-05
-3.572451169020496e-05,0.00012275768676772714,-2.7223322831559926e-05,1.887389771582093e-05
-2.4237284378614277e-05,0.00014987628674134612,-2.2680980691802688e-05,1.94049298443133e-05
-2.0978322936571203e-05,0.0001810917310649529,-2.3272024918696843e-05,2.4202345230150968e-05
-2.0688634322141297e-05,0.00019386885105632246,-2.224924901383929e-05,2.7638669052976184e-05
-2.1178560928092338e-05,0.0001552107569295913,-1.87003370228922e-05,3.081626709899865e-05
-2.3788426915416494e-05,9.394895459990948e-05,-1.7311074770987034e-05,3.0112560125417076e-05
-2.689014218049124e-05,4.492691732593812e-05,-1.8344493582844734e-05,2.6372932552476414e-05
-2.4727729396545328e-05,2.0072833649464883e-05,-2.485859477019403e-05,2.580856016720645e-05
-2.7760539524024352e-05,1.9421382603468373e-05,-3.0885636078892276e-05,2.2375519620254636e-05
-4.196779627818614e-05,2.1596513761323877e-05,-3.15899851557333e-05,1.5276951671694405e-05
-5.406889977166429e-05,1.4901894246577285e-05,-3.0755141779081896e-05,1.123813672165852e-05
-5.555282041314058e-05,2.929003358076443e-06,-2.827575008268468e-05,1.2817296919820365e-05
-5.298008909448981e-05,-3.1560452384837845e-07,-2.5440805984544568e-05,1.7683249097899534e-05
-5.9070185670861974e-05,1.84216805791948e-05,-2.0654189938795753e-05,2.1641231796820648e-05
-7.542582898167893e-05,6.679264333797619e-05,-1.039508879330242e-05,2.3557857275591232e-05
-9.832820069277659e-05,0.0001318595459451899,-1.1495346825540764e-06,2.4280365323647857e-05
-0.0001166595975519158,0.00017633054812904447,-2.657344793988159e-06,2.7549205697141588e-05
-0.00011740386980818585,0.00015848461771383882,-9.968325684894808e-06,3.290222957730293e-05
-9.849677007878199e-05,6.792388739995658e-05,-1.5186408745648805e-05,3.3588072255952284e-05
-7.674766675336286e-05,-4.650071423384361e-05,-1.7350648704450577e-05,2.8780954380636103e-05
-6.182746437843889e-05,-0.00012457616685424,-2.012654294958338e-05,2.6148043616558425e-05
-4.996511052013375e-05,-0.00015908874047454447,-2.623401269374881e-05,2.6314641218050383e-05
-3.3663600333966315e-05,-0.00017574911180417985,-3.9495287637691945e-05,2.629910159157589e-05
-1.3463047253026161e-05,-0.00018785957945510745,-5.166879418538883e-05,2.5715275114635006e-05
2.0723998659377685e-06,-0.00020278594456613064,-4.879977132077329e-05,2.4966913770185784e-05
2.4235873752331827e-06,-0.00021702356752939522,-3.8227211916819215e-05,2.5086590540013276e-05
-1.0875430234591477e-05,-0.00020368913828860968,-3.177649341523647e-05,2.2283673388301395e-05
-2.291985038027633e-05,-0.0001506949629401788,-3.0860719562042505e-05,1.3739791029365733e-05
-3.079605085076764e-05,-6.751818000338972e-05,-3.2218784326687455e-05,3.358625463079079e-06
-3.90586064895615e-05,3.0479717679554597e-05,-2.8498785468400456e-05,1.8002464230448822e-06
-4.784709381056018e-05,0.00013962306547909975,-2.3869642973295413e-05,8.842660463415086e-06
-5.7664849009597674e-05,0.0002450389147270471,-2.767960904748179e-05,1.7343530998914503e-05
-7.340038428083062e-05,0.0003407627227716148,-3.6525787436403334e-05,2.279870750498958e-05
-9.983053314499557e-05,0.00044952883035875857,-3.972143531427719e-05,2.1604168068733998e-05
-0.00012214225716888905,0.0005064131692051888,-3.810957059613429e-05,1.7552682038513012e-05
-0.0001254469098057598,0.0004551967140287161,-3.7563571822829545e-05,1.34039710246725e-05
-0.00012052723468514159,0.00035884385579265654,-3.5345474316272885e-05,1.3435132132144645e-05
-0.00011770342825911939,0.00027454912196844816,-3.1962623324943706e-05,1.4086203918850515e-05
-0.00011265595821896568,0.00017291089170612395,-3.0388493541977368e-05,9.935703019436914e-06
-0.00010148498404305428,4.422586425789632e-05,-3.125302100670524e-05,4.559929948300123e-06
-8.689177047926933e-05,-5.4452058975584805e-05,-3.257076969021e-05,3.6948604247299954e-06
-7.569387526018545e-05,-8.132140646921471e-05,-3.2988125894917175e-05,8.588545824750327e-06
-7.085523247951642e-05,-6.314170605037361e-05,-2.5115841708611697e-05,1.331145813310286e-05
-6.731906614731997e-05,-4.625024666893296e-05,-1.1363594239810482e-05,1.5594943761243485e-05
-5.997738117002882e-05,-3.601171192713082e-05,-8.055340003920719e-06,1.8423919755150564e-05
-5.2928513468941674e-05,-1.7776997992768884e-05,-2.1257712432998233e-05,2.5972169169108383e-05
-4.876784441876225e-05,2.4161815304069023e-07,-3.492498944979161e-05,3.5123724956065416e-05
-4.5022632548352703e-05,-4.901336978946347e-06,-3.6103956517763436e-05,3.776526136789471e-05
-4.0647315472597256e-05,-3.0174904168234207e-05,-2.833464532159269e-05,2.957361903099809e-05
-3.065542841795832e-05,-6.258980283746496e-05,-1.796289870981127e-05,1.8416183593217283e-05
-1.6787589629529975e-05,-8.346125105163082e-05,-9.451316145714372e-06,1.4862680473015644e-05
-5.84241388423834e-06,-7.518602797063068e-05,-6.113070412538946e-06,1.763928412401583e-05
-2.4045098143687937e-06,-5.364569369703531e-05,-8.545962373318616e-06,2.27602959057549e-05
-3.6381297832122073e-06,-4.41702468378935e-05,-1.4707055015605874e-05,2.9646078473888338e-05
-5.483892437041504e-06,-3.547603409970179e-05,-2.2833351977169514e-05,3.1749110348755494e-05
-5.84454801355605e-06,-1.7549398762639612e-05,-3.0733503081137314e-05,2.752817454165779e-05
-4.97653763886774e-06,8.816363333608024e-06,-3.319795723655261e-05,1.5360885299742222e-05
-1.024326866172487e-05,6.038774154148996e-05,-2.948501605715137e-05,-3.959614332416095e-06
-2.755549030553084e-05,0.00012166218948550522,-2.620280247356277e-05,-4.639910457626684e-06
-5.51538796571549e-05,0.0001473136362619698,-2.35448624152923e-05,2.0060311726410873e-05
-8.064046414801851e-05,0.00013008987298235297,-2.048316309810616e-05,4.4896514737047255e-05
-0.00010047104296972975,6.812773062847555e-05,-1.544521546748001e-05,4.7844900109339505e-05
-0.00011725086369551718,-1.7957298041437753e-05,-6.775730525987456e-06,2.415226299490314e-05
-0.00011933454516110942,-6.0236761783016846e-05,-1.2260717994649895e-05,-3.810270754911471e-06
-0.00010070769349113107,-3.0591236281907186e-05,-3.514547643135302e-05,-8.465067367069423e-06
-7.634976645931602e-05,-6.56003567200969e-06,-5.050842810305767e-05,6.744702659489121e-06
-6.393260264303535e-05,-3.7151901778997853e-05,-4.97116161568556e-05,1.8062097296933644e-05
-6.504039629362524e-05,-7.401732727885246e-05,-3.9122693124227226e-05,1.8966075003845617e-05
-6.915797712281346e-05,-6.597548053832725e-05,-2.8455329811549746e-05,1.846968189056497e-05
-5.9832320403074846e-05,-2.5003848350024782e-05,-1.8254293536301702e-05,2.07445009436924e-05
-3.620667121140286e-05,9.00986105989432e-06,-1.1346058272465598e-05,2.4285709514515474e-05
-1.547889769426547e-05,2.9598706532851793e-05,-9.350715117761865e-06,2.8143778763478622e-05
-1.147884722740855e-05,4.5668708480661735e-05,-9.82103756541619e-06,2.924434738815762e-05
-1.915205575642176e-05,5.4963315051281825e-05,-1.1172454833285883e-05,2.5427270884392783e-05
-2.3874732505646534e-05,4.934353273711167e-05,-1.4198265489540063e-05,2.2242556951823644e-05
-2.1142441255506128e-05,4.4854510633740574e-05,-1.7579914128873497e-05,2.2784899556427263e-05
-1.8936114429379813e-05,6.141026096884161e-05,-1.785463246051222e-05,2.1734313122578897e-05
-2.4225515517173335e-05,9.950668754754588e-05,-1.4343596376420464e-05,1.712963785394095e-05
-3.3689055271679536e-05,0.0001434364094166085,-8.750978850002866e-06,1.7404947357135825e-05
-4.003452340839431e-05,0.00017632175877224654,-6.716143161611399e-06,2.615712037368212e-05
-4.105439074919559e-05,0.00018285655824001878,-8.547471225028858e-06,3.580292468541302e-05
-3.958973684348166e-05,0.00016937905456870794,-1.4136840036371723e-05,4.060786886839196e-05
-3.761424886761233e-05,0.00014076005027163774,-2.207062607340049e-05,4.240004636812955e-05
-4.070773866260424e-05,8.347745460923761e-05,-3.4089945984305814e-05,4.4394877477316186e-05
-4.494115637498908e-05,-1.7402773664798588e-05,-4.914734745398164e-05,4.42873606516514e-05
-4.032572905998677e-05,-8.169822831405327e-05,-5.664215495926328e-05,4.122782775084488e-05
-3.4870317904278636e-05,-5.889112071599811e-05,-5.471468830364756e-05,3.3650980185484514e-05
-3.824493978754617e-05,-2.4822873456287198e-05,-4.7126446588663384e-05,2.0862897144979797e-05
-4.697314216173254e-05,-3.4738412068691105e-05,-3.9070044294930995e-05,1.3004695574636571e-05
-5.455954669741914e-05,-9.195456368615851e-05,-3.7059297028463334e-05,1.2615002560778521e-05
-5.34275131940376e-05,-0.0001517794153187424,-3.690000085043721e-05,1.4580976312572602e-05
-4.6631263103336096e-05,-0.00017985363956540823,-3.528003071551211e-05,1.4905557691236027e-05
-4.097101918887347e-05,-0.00016704006702639163,-3.0590737878810614e-05,1.776400131348055e-05
-3.692020254675299e-05,-0.00012601750495377928,-2.4850774934748188e-05,2.2362200979841873e-05
-3.1008763471618295e-05,-7.562517566839233e-05,-1.798836274247151e-05,2.4107759600155987e-05
-2.5707271561259404e-05,-2.0711531760753132e-05,-1.6296902686008252e-05,2.766420402622316e-05
-2.2470367184723727e-05,3.623923839768395e-05,-2.0222705643391237e-05,3.3737265766831115e-05
-2.1160118194529787e-05,8.477034862153232e-05,-2.4309436412295327e-05,3.67001339327544e-05
-2.4547067368985154e-05,0.00012212112778797746,-2.6999365218216553e-05,3.423944508540444e-05
-2.9781722332700156e-05,0.0001512855669716373,-2.85606747638667e-05,3.095317515544593e-05
-3.460299194557592e-05,0.00017422680684830993,-2.791537917801179e-05,3.0022218197700568e-05
-3.8853188016219065e-05,0.00017933839990291744,-2.5854742489173077e-05,3.115392246400006e-05
-4.496901237871498e-05,0.000145562895340845,-2.6529760361881927e-05,2.875235259125475e-05
-5.483944551087916e-05,7.991874008439481e-05,-2.8638902222155593e-05,2.3085347493179142e-05
-6.741350807715207e-05,9.045007573149633e-06,-3.0466937460005283e-05,1.9838389562210068e-05
-7.280664431164041e-05,-4.7739249566802755e-05,-2.9530217943829484e-05,2.015943027799949e-05
-6.695366027997807e-05,-7.618156087119132e-05,-2.608566137496382e-05,2.2633059415966272e-05
-5.753493314841762e-05,-6.603950896533206e-05,-2.1568646843661554e-05,2.8259202736080624e-05
-5.107101605972275e-05,-2.176407906517852e-05,-1.8707789422478527e-05,3.467524584266357e-05
-4.662127321353182e-05,3.913550972356461e-05,-1.8594053472043015e-05,3.8814272556919605e-05
-4.0149934648070484e-05,9.05490669538267e-05,-1.9289538613520563e-05,4.060989886056632e-05
-3.714255217346363e-05,0.00014660172746516764,-1.957603672053665e-05,4.005287337349728e-05
-4.2894309444818646e-05,0.00020897717331536114,-2.0553854483296163e-05,3.764810389839113e-05
-5.2622792281908914e-05,0.00023391017748508602,-1.9859728126903065e-05,3.437446503085084e-05
-5.6562443205621094e-05,0.00021423390717245638,-1.6232250345638022e-05,3.018093775608577e-05
-5.315684393281117e-05,0.00015836377860978246,-7.338471732509788e-06,2.1069661670480855e-05
-4.77943176520057e-05,7.946353434817865e-05,-3.4236472856719047e-07,1.0579099580354523e-05
-4.188488674117252e-05,1.2443184459698386e-05,9.075870366359595e-06,5.368866368371528e-06
-3.524649582686834e-05,-4.107914355699904e-05,2.4471351935062557e-05,1.988193844226771e-06
-3.292044493719004e-05,-8.299146429635584e-05,2.2870503016747534e-05,1.513479901404935e-06
-4.258883564034477e-05,-9.160873742075637e-05,-1.2049095857946668e-05,1.3284005035529844e-05
-6.710355228278786e-05,-6.306998693617061e-05,-6.1626014939975e-05,3.787031164392829e-05
-9.731745376484469e-05,-3.693991311592981e-05,-0.00010054535960080102,5.901822805753909e-05
-0.00012014428648399189,-3.852991358144209e-05,-0.00011205435293959454,5.789966235170141e-05
-0.0001301563752349466,-5.5233234888873994e-05,-8.217080176109448e-05,3.089078745688312e-05
-0.00012777904339600354,-6.165334343677387e-05,-3.167459726682864e-05,-1.1943459867325146e-05
-0.0001177827944047749,-3.429794014664367e-05,-1.0386162330178195e-06,-4.057873593410477e-05
-0.00010360024316469207,2.245177711301949e-05,-7.497585102100857e-06,-2.3222461095429026e-05
-8.644503395771608e-05,6.840757123427466e-05,-3.396115425857715e-05,2.5966131943278015e-05
-6.88259387970902e-05,6.447907071560621e-05,-5.575545219471678e-05,5.822116509079933e-05
-5.874290582141839e-05,2.8724085495923646e-05,-5.919170143897645e-05,5.3278290579328313e-05
-5.780108040198684e-05,1.4180795005813707e-05,-4.7862664359854534e-05,2.9152888600947335e-05
-6.024417234584689e-05,4.603710112860426e-05,-3.551550616975874e-05,1.0210752407147083e-05
-5.9986832638969645e-05,0.00010334070248063654,-3.1142259103944525e-05,6.509194008685881e-06
-5.437284562503919e-05,0.00016149682051036507,-3.0219245672924444e-05,9.875556315819267e-06
-4.8634952690918e-05,0.00019086308020632714,-2.5084764274652116e-05,1.0670492883946281e-05
-4.5233533455757424e-05,0.00017566319729667157,-1.903224620036781e-05,1.138988409365993e-05
-4.196194640826434e-05,0.00014086792361922562,-2.171453888877295e-05,1.486184282839531e-05
-3.904450568370521e-05,0.00010483257210580632,-3.062117684748955e-05,2.1634852600982413e-05
-3.249188739573583e-05,6.256967026274651e-05,-3.283394471509382e-05,2.7085790861747228e-05
-2.3781451091053896e-05,1.369829351460794e-05,-2.96292837447254e-05,2.738453258643858e-05
-2.3391712602460757e-05,-3.2497046049684286e-05,-2.551382567617111e-05,2.684713945200201e-05
-2.679622411960736e-05,-6.051795571693219e-05,-2.4175427824957296e-05,1.9761675503104925e-05
-2.9471470043063164e-05,-6.787076563341543e-05,-2.6180450731771998e-05,1.2377543498587329e-05
-3.236312841181643e-05,-7.370499224634841e-05,-2.5109844500548206e-05,1.4726183508173563e-05
-3.3302538213320076e-05,-9.7190189990215e-05,-2.357604716962669e-05,2.1824280338478275e-05
-3.1564952223561704e-05,-0.00012859566777478904,-2.417895848338958e-05,2.592746568552684e-05
-3.0088447601883672e-05,-0.0001427356619387865,-2.5091063434956595e-05,2.6426603653817438e-05
-3.227391425753012e-05,-0.00011008932051481679,-2.3523576601292007e-05,2.5698855097289197e-05
-3.940591341233812e-05,-1.506060016254196e-05,-1.80130336957518e-05,2.2688167518936098e-05
-5.062605850980617e-05,0.00010687876056181267,-9.90054559224518e-06,1.9417137082200497e-05
-6.065147681511007e-05,0.0001837357267504558,-3.433168103583739e-06,1.893675835162867e-05
-6.436088006012142e-05,0.00018389918841421604,6.291361387411598e-08,1.9946044631069526e-05
-6.163954822113737e-05,0.00014153718075249344,2.951367605419364e-06,1.952480488398578e-05
-5.867081199539825e-05,0.00010523061064304784,4.008433734270511e-06,2.0806663087569177e-05
-6.202346412464976e-05,8.606592746218666e-05,-8.715311423657113e-07,2.1270154320518486e-05
-6.635555473621935e-05,5.6076067266985774e-05,-1.4188791283231694e-05,1.8757384168566205e-05
-5.878721276530996e-05,1.1466631804069038e-05,-3.431960067246109e-05,1.6580343071836978e-05
-4.518552668741904e-05,-1.9003824490937404e-05,-4.961061495123431e-05,1.708999479888007e-05
-4.4103995605837554e-05,-2.437005241517909e-05,-4.48670907644555e-05,1.891004285425879e-05
-5.2860963478451595e-05,-1.2976081961824093e-05,-2.946402491943445e-05,2.1394600480562076e-05
-5.565673200180754e-05,9.23249899642542e-06,-2.0083976778551005e-05,2.4715527615626343e-05
-4.825861833523959e-05,3.96142786485143e-05,-1.5797317246324383e-05,3.1556872272631153e-05
-4.1136594518320635e-05,7.279303099494427e-05,-1.610004619578831e-05,3.918494621757418e-05
-3.89194319723174e-05,8.94202312338166e-05,-2.485887671355158e-05,4.185062789474614e-05
-3.317853042972274e-05,6.224915705388412e-05,-3.272016692790203e-05,4.17702212871518e-05
-2.4842196580721065e-05,1.6804922779556364e-05,-3.0289145797723904e-05,3.7911097024334595e-05
-2.3307067749556154e-05,1.4458143596129958e-05,-2.3711751055088826e-05,3.04910572594963e-05
-2.733272049226798e-05,5.653707921737805e-05,-2.2058393369661644e-05,2.74309677479323e-05
-3.1308380130212754e-05,0.00010764751641545445,-2.06003496714402e-05,2.925708395196125e-05
-3.057971116504632e-05,0.00013792757818009704,-1.807688022381626e-05,2.925920307461638e-05
-2.108571607095655e-05,0.00014625134645029902,-1.612853884580545e-05,2.899194987548981e-05
-1.1323598300805315e-05,0.00013801243039779365,-1.0584890333120711e-05,2.8847791327279992e-05
-6.397763627319364e-06,0.00010641034896252677,-4.615337275026832e-06,2.3223850803333335e-05
-1.0572604878689162e-05,3.715514685609378e-05,-7.189143616415095e-06,9.298825716541614e-06
-2.1387155356933363e-05,-5.6128654250642285e-05,-1.9793162209680304e-05,3.002954258590762e-07
-3.408775228308514e-05,-0.0001283726014662534,-3.16681653202977e-05,6.439900062105153e-06
-4.362253821454942e-05,-0.00014987769827712327,-3.556651427061297e-05,1.9411272660363466e-05
-4.670754060498439e-05,-0.0001331511593889445,-3.1936808227328584e-05,2.7627926101558842e-05
-4.682355938712135e-05,-0.00011584011372178793,-2.7620484615908936e-05,2.9299326342879795e-05
-4.776734931510873e-05,-0.00010357006249250844,-2.4428276446997188e-05,2.7309613869874738e-05
-5.443350164568983e-05,-6.43322491669096e-05,-2.3184495148598216e-05,2.427605249977205e-05
-6.53038005111739e-05,1.5495243133045733e-05,-2.358557321713306e-05,2.213979314547032e-05
-7.422324415529147e-05,8.888738375389948e-05,-2.4815391952870414e-05,2.027919254032895e-05
-7.522373925894499e-05,0.00010151278547709808,-2.6701605747803114e-05,1.754320146574173e-05
-7.06067294231616e-05,6.732746260240674e-05,-2.941810635093134e-05,1.573979352542665e-05
-6.6292384872213e-05,4.355033888714388e-05,-3.096048385486938e-05,1.8518208889872767e-05
-6.834133819211274e-05,4.8853951739147305e-05,-2.9890512450947426e-05,2.2750227799406275e-05
-7.204098073998466e-05,6.692630995530635e-05,-3.189096969435923e-05,2.420016608084552e-05
-6.842340371804312e-05,7.600380922667682e-05,-3.7773210351588205e-05,2.5221697796951048e-05
-6.095049684518017e-05,7.516084588132799e-05,-3.900771480402909e-05,2.3055319616105407e-05
-5.872296969755553e-05,7.585565617773682e-05,-3.3891989005496725e-05,2.07686625799397e-05
-6.336725346045569e-05,9.228640556102619e-05,-2.8989403290324844e-05,2.5770683350856416e-05
-6.889599899295717e-05,0.00011659753363346681,-2.5382754756719805e-05,3.290521271992475e-05
-6.654148455709219e-05,0.00011906115832971409,-2.4325958293047734e-05,3.605644451454282e-05
-6.055129415472038e-05,0.00010639757965691388,-2.334979217266664e-05,3.515991920721717e-05
-6.259499787120149e-05,9.89510808722116e-05,-2.3601156499353237e-05,3.5624838346848264e-05
-6.727890286128968e-05,9.28805093280971e-05,-2.651113027241081e-05,3.5284556361148134e-05
-6.291388854151592e-05,8.299286128021777e-05,-2.770643914118409e-05,3.3473676012363285e-05
-5.5791748309275135e-05,6.577080057468265e-05,-2.674409006431233e-05,3.027529783139471e-05
-4.960770456818864e-05,3.659301364677958e-05,-2.8803700843127444e-05,2.7120970116811804e-05
-4.4483120291261e-05,6.007323918311158e-06,-3.013861169165466e-05,2.5202833057846874e-05
-4.0828261262504384e-05,-1.2138227248215117e-05,-2.4879340344341472e-05,2.6836112738237716e-05
-3.42438870575279e-05,-1.3064231097814627e-05,-1.4918424312782008e-05,3.16995574394241e-05
-2.9665816327906214e-05,-9.62107378654764e-07,-8.368591807084158e-06,3.5991426557302475e-05
-3.3461215934948996e-05,1.3943850717623718e-05,-8.188079846149776e-06,4.03272315452341e-05
-3.9554168324684724e-05,3.184920205967501e-05,-9.9679109553108e-06,4.534256368060596e-05
-4.3447857024148107e-05,5.761163993156515e-05,-1.3859181308362167e-05,4.599320163833909e-05
-4.96844804729335e-05,8.174478716682643e-05,-1.6787651475169696e-05,3.5245739127276465e-05
-6.031226075720042e-05,8.583177987020463e-05,-1.558279836899601e-05,1.620981674932409e-05
-6.957454752409831e-05,5.5379015975631773e-05,-1.988470830838196e-05,5.377261004468892e-06
-6.919414590811357e-05,-4.952133281221904e-07,-3.669683064799756e-05,1.5001076462795027e-05
-6.132890121079981e-05,-3.72725808119867e-05,-5.255858559394255e-05,3.448009374551475e-05
-5.628120561596006e-05,-2.5657116566435434e-05,-5.617606802843511e-05,4.340367013355717e-05
-5.721913476008922e-05,-2.935522388725076e-06,-5.082396091893315e-05,3.0321649319375865e-05
-5.660470196744427e-05,-8.119981430354528e-06,-4.420053301146254e-05,9.12548421183601e-06
-5.4954343795543537e-05,-1.9895735022146255e-05,-4.1560226236470044e-05,2.4890201899552267e-08
-5.5769109167158604e-05,-3.671716058306629e-06,-3.719764208653942e-05,4.236469521856634e-06
-5.5688349675619975e-05,4.213818465359509e-05,-3.296364957350306e-05,9.463099559070542e-06
-5.341543510439806e-05,7.118304347386584e-05,-3.345153163536452e-05,1.3412735825113486e-05
-5.6657136155990884e-05,4.843819260713644e-05,-3.251124871894717e-05,1.7380250938003883e-05
-5.975388194201514e-05,1.351022638118593e-05,-2.9956241633044556e-05,1.8525304767536e-05
-5.575481918640435e-05,1.4773261227674084e-06,-2.7047139155911282e-05,2.0405719624250196e-05
-5.439450251287781e-05,1.1664288649626542e-05,-2.74208614428062e-05,2.319084342161659e-05
-5.194893674342893e-05,2.5841814931482077e-05,-2.8008120352751575e-05,2.084917105094064e-05
-4.244294541422278e-05,2.629073424031958e-05,-2.8439078960218467e-05,1.5125746358535253e-05
-3.4343640436418355e-05,1.8337295841774903e-05,-2.6222523956676014e-05,1.0728797860792838e-05
-3.2529322197660804e-05,1.4461317732639145e-05,-2.1570607714238577e-05,8.937542588682845e-06
-3.629497223300859e-05,1.8822611309587955e-05,-1.9041648556594737e-05,1.0249838851450477e-05
-3.7750694900751114e-05,2.336447505513206e-05,-1.8580765754450113e-05,1.3163606126909144e-05
-3.584488877095282e-05,2.1938538338872604e-05,-1.7004667824949138e-05,1.3873677744413726e-05
-3.396181273274124e-05,1.638085814192891e-05,-1.4498205018753652e-05,1.4429787370318081e-05
-3.364320582477376e-05,1.1926291335839778e-05,-1.6299385606544092e-05,1.5846493624849245e-05
-3.441685839788988e-05,1.150485059042694e-05,-1.9355049516889267e-05,1.7870874216896482e-05
-3.350854240125045e-05,1.3822317669109907e-05,-1.90435275726486e-05,2.1117615688126534e-05
-3.1777279218658805e-05,1.7073993149097078e-05,-1.5411944332299754e-05,2.4655266315676272e-05
-3.219529753550887e-05,2.2647593141300604e-05,-1.3419375136436429e-05,2.728000072238501e-05
-3.546396692399867e-05,2.7251866413280368e-05,-1.3595471500593703e-05,2.9025508410995826e-05
-3.7970665289321914e-05,2.8108523110859096e-05,-1.6077312466222793e-05,3.0284545573522337e-05
-3.8384099752875045e-05,2.8203086912981234e-05,-1.9136869013891555e-05,3.2108018785947934e-05
-3.499622835079208e-05,2.1377092707552947e-05,-1.967997923202347e-05,3.564064172678627e-05
-2.427201616228558e-05,-1.3487178875948302e-05,-1.7232043319381773e-05,3.541752812452614e-05
-1.291379794565728e-05,-7.430247933370993e-05,-1.7056099750334397e-05,3.3077500120271e-05
-9.601048077456653e-06,-0.00012363081623334438,-1.9777864508796483e-05,3.180398198310286e-05
-1.0283844858349767e-05,-0.00015084841288626194,-2.1793988707941025e-05,3.284015110693872e-05
-1.5810564946150407e-05,-0.00016745908942539245,-2.2159279978950508e-05,3.5746663343161345e-05
-2.4461989596602507e-05,-0.0001676635874900967,-2.3010230506770313e-05,3.492668110993691e-05
-2.3569440600113012e-05,-0.00014263781486079097,-2.4679977286723442e-05,3.0956151022110134e-05
-1.1583596460695844e-05,-0.00010564663534751162,-2.5179142539855093e-05,2.5834677217062563e-05
-3.985526745964307e-06,-8.437433280050755e-05,-2.566648254287429e-05,2.3905158741399646e-05
-7.521890097450523e-07,-6.831752398284152e-05,-2.7146994398208335e-05,2.6179572159890085e-05
-1.4336883396026678e-06,5.0713356358755846e-06,-2.6673000320442952e-05,2.763812335615512e-05
-1.8782100596581586e-05,0.00016254688671324402,-2.5789180654101074e-05,2.6572959541226737e-05
-5.4541775170946494e-05,0.0003451663360465318,-2.6826688554137945e-05,2.330145434825681e-05
-9.632633009459823e-05,0.00045316305477172136,-2.937656427093316e-05,2.3378323021461256e-05
-0.0001267028710572049,0.00042360828956589103,-3.2991803891491145e-05,2.383916034887079e-05
-0.00013315959949977696,0.00031208479776978493,-3.491517418297008e-05,2.436079921608325e-05
-0.0001245846360689029,0.0002227493969257921,-3.548598397173919e-05,2.404055521765258e-05
-0.00011936571536352858,0.00019095854077022523,-3.43878818966914e-05,1.9577548300730996e-05
-0.00012006560427835211,0.000178215341293253,-3.2422020012745634e-05,1.3144413969712332e-05
-0.00011784549860749394,0.0001619499671505764,-3.155857848469168e-05,9.027849955600686e-06
-0.00010895093873841688,0.00014423024549614638,-3.3182866900460795e-05,9.510513336863369e-06
-9.613359725335613e-05,0.00011349010310368612,-3.304957863292657e-05,1.5110785170691088e-05
-8.254205022240058e-05,6.542084884131327e-05,-2.867811417672783e-05,2.351033253944479e-05
-7.458420441253111e-05,1.2276314919290598e-05,-2.2770311261410825e-05,2.6910680389846675e-05
-7.275638199644163e-05,-3.621785799623467e-05,-1.9871602489729412e-05,2.4329945517820306e-05
-7.118590292520821e-05,-6.94059272063896e-05,-2.0111627236474305e-05,2.1571082470472902e-05
-6.592031422769651e-05,-6.627508264500648e-05,-2.4570523237343878e-05,2.0278277588658966e-05
-5.374809188651852e-05,-3.151635610265657e-05,-3.309749445179477e-05,1.7650689187576063e-05
-3.672498496598564e-05,1.3785510418529157e-05,-3.88649023079779e-05,1.827272353693843e-05
-2.6157829779549502e-05,5.976571628707461e-05,-3.934942651540041e-05,2.513731669750996e-05
-2.8403726901160553e-05,0.00010026160452980548,-3.324202771182172e-05,3.169959381921217e-05
-4.455157250049524e-05,0.00011979825649177656,-2.668469460331835e-05,3.205488246749155e-05
-6.535310967592523e-05,0.0001271185465157032,-2.4075769033515826e-05,2.830742232617922e-05
-7.854539580876008e-05,0.00012662122026085854,-2.336041688977275e-05,2.831522942869924e-05
-8.500998956151307e-05,0.00010586786811472848,-2.388583197898697e-05,2.8235788704478182e-05
-8.9317123638466e-05,7.874858420109376e-05,-2.8370428481139243e-05,2.1164332792977802e-05
-8.298698958242312e-05,4.5136501285014674e-05,-3.390119309187867e-05,1.7536016457597725e-05
-7.043423102004454e-05,4.664965672418475e-06,-3.2604588341200724e-05,1.857689676398877e-05
-6.127529195509851e-05,-1.535340925329365e-05,-2.9976754376548342e-05,1.7440635929233395e-05
-5.522055289475247e-05,-5.7392544476897456e-06,-2.8521388230728917e-05,1.557537507324014e-05
-5.012535257264972e-05,1.1743040886358358e-05,-2.4531314920750447e-05,1.90077207662398e-05
-4.331384479883127e-05,8.44470014271792e-06,-1.8489356079953723e-05,2.4364730052184314e-05
-3.960371759603731e-05,-1.1287952474958729e-05,-1.6621705071884207e-05,2.8365913749439642e-05
-3.592780194594525e-05,-2.470690378686413e-05,-2.0762066924362443e-05,3.1470619433093816e-05
-3.2344461942557245e-05,-2.395307456026785e-05,-2.6587589672999457e-05,3.2715106499381363e-05
-3.1414292607223615e-05,-1.3629429304273799e-05,-2.8030548492097296e-05,3.229773938073777e-05
-3.4631309972610325e-05,-1.6410136538524966e-07,-2.4574190319981426e-05,3.337512680445798e-05
-3.587995161069557e-05,3.648205392892123e-06,-2.089469307975378e-05,3.569578257156536e-05
-3.0342580430442467e-05,-4.786345925822388e-06,-1.8175140212406404e-05,3.427773481234908e-05
-2.3426755433320068e-05,-1.1510222975630313e-05,-1.7000735169858672e-05,2.991196197399404e-05
-2.1627383830491453e-05,-1.2455609066819306e-05,-1.8379489119979553e-05,2.5805704353842884e-05
-2.480329385434743e-05,-1.3462222341331653e-05,-2.0487772417254746e-05,2.394681541773025e-05
-2.7303414753987454e-05,-1.599987444933504e-05,-1.971943856915459e-05,2.403017606411595e-05
-3.075143467867747e-05,-2.0032595784869045e-05,-1.7389686036040075e-05,2.5040573746082373e-05
-3.5572913475334644e-05,-2.5193527108058333e-05,-1.7845555703388527e-05,2.4620590920676477e-05
-3.51551643689163e-05,-2.3726921426714398e-05,-2.2743215595255606e-05,2.4973409381345846e-05
-3.0089748179307207e-05,-1.225426694873022e-05,-2.2961739887250587e-05,2.6345589503762312e-05
-2.872594450309407e-05,-4.60522551293252e-06,-2.0572770154103637e-05,2.5895540602505207e-05
-3.304029814898968e-05,-1.0395106983196456e-05,-2.226476135547273e-05,2.3936559955473058e-05
-3.603746881708503e-05,-1.5679219359299168e-05,-2.670680078153964e-05,2.0876617782050744e-05
-3.083902629441582e-05,-1.641669041418936e-05,-2.8707412639050744e-05,1.8480801372788846e-05
-2.1842963178642094e-05,-1.4855910194455646e-05,-2.7279580535832793e-05,2.0911522369715385e-05
-2.2811380404164083e-05,-1.2185426385258324e-05,-2.8485881557571702e-05,2.4815577489789575e-05
-3.543296406860463e-05,-8.249198799603619e-06,-2.9994354918017052e-05,2.7614698410616256e-05
-4.198604074190371e-05,1.4633975524702691e-06,-3.2303032639902085e-05,2.5729434128152207e-05
-3.7307312595658004e-05,1.4443982763623353e-05,-3.302403274574317e-05,2.2358728529070504e-05
-3.054346962017007e-05,2.607085662020836e-05,-3.019411269633565e-05,2.110357854689937e-05
-2.9478133001248352e-05,3.259393270127475e-05,-2.882366425183136e-05,1.908269405248575e-05
-3.4555243473732844e-05,3.3263426303165033e-05,-2.9064198315609246e-05,1.8909029677161016e-05
-3.899918374372646e-05,3.2375683076679707e-05,-2.9789165637339465e-05,1.910825631057378e-05
-3.938419104088098e-05,3.100451431237161e-05,-2.966410647786688e-05,1.9323524611536413e-05
-3.8967118598520756e-05,3.133176869596355e-05,-2.8769280106644146e-05,2.0579996999003924e-05
-3.922204996342771e-05,3.674303297884762e-05,-2.60551278188359e-05,2.302259781572502e-05
-4.1414008592255414e-05,4.437996540218592e-05,-2.248686541861389e-05,2.4208762624766678e-05
-4.607863593264483e-05,4.772206739289686e-05,-2.0635205146390945e-05,2.488055542926304e-05
-5.005640196031891e-05,4.666728636948392e-05,-2.159021096304059e-05,2.9122755222488195e-05
-5.1385111873969436e-05,4.749323852593079e-05,-2.354755997657776e-05,3.542008198564872e-05
-5.233020056039095e-05,5.311570203048177e-05,-2.4951930754468776e-05,3.839273995254189e-05
-5.355033863452263e-05,5.75220474274829e-05,-2.63807232840918e-05,3.773206117330119e-05
-5.2804229198955e-05,5.764231536886655e-05,-2.6648849598132074e-05,3.680038207676262e-05
-4.95768545079045e-05,5.4002633987693116e-05,-2.4660614144522697e-05,3.641239527496509e-05
-5.261588012217544e-05,5.064565993961878e-05,-2.319420309504494e-05,3.66868989658542e-05
-6.415144889615476e-05,5.299135955283418e-05,-2.5174915208481252e-05,3.582681529223919e-05
-6.623570516239852e-05,4.908275150228292e-05,-2.695428156584967e-05,3.379038389539346e-05
-6.133870920166373e-05,4.340656232670881e-05,-2.764356577245053e-05,3.2054755138233304e-05
-5.901178883505054e-05,4.289541902835481e-05,-2.648514237080235e-05,3.1755600502947345e-05
-5.594441608991474e-05,2.9787601306452416e-05,-2.679669159988407e-05,2.9130957045708783e-05
-5.0833001296268776e-05,-1.4276366755439085e-06,-2.8900569304823875e-05,2.250444595119916e-05
-4.608876770362258e-05,-3.1764480809215456e-05,-2.9857101253583096e-05,1.5096835340955295e-05
-4.202437776257284e-05,-3.741028922377154e-05,-3.142485729767941e-05,1.4509128959616646e-05
-3.617439870140515e-05,-1.76804624061333e-05,-3.226565240765922e-05,2.1415344235720113e-05
-3.120853943983093e-05,2.004081216000486e-05,-3.405707684578374e-05,2.4127359210979193e-05
-3.080139867961407e-05,7.524530519731343e-05,-3.667111013783142e-05,2.3609183699591085e-05
-3.691554957185872e-05,0.00012938481813762337,-3.621663199737668e-05,2.501183371350635e-05
-4.570103919832036e-05,0.0001580169191583991,-3.363199721206911e-05,2.6181567591265775e-05
-5.511629569809884e-05,0.00015992071712389588,-3.141973866149783e-05,2.3771528503857553e-05
-5.978321496513672e-05,0.0001457018224755302,-2.9370930860750377e-05,2.1772935724584386e-05
-5.928993414272554e-05,0.00013701472198590636,-2.926171146100387e-05,2.0112262063776143e-05
-5.9316924307495356e-05,0.00014908220327924937,-2.840733213815838e-05,1.782482286216691e-05
-5.8482211898081005e-05,0.0001584380370331928,-2.6288373192073777e-05,1.7080992620321922e-05
-5.508704998646863e-05,0.00013447937089949846,-2.5764773454284295e-05,1.8287679267814383e-05
-5.024221900384873e-05,7.559669757029042e-05,-2.696595220186282e-05,1.7648437278694473e-05
-4.605817230185494e-05,4.2887850213446654e-06,-2.777956979116425e-05,1.480620358051965e-05
-4.269786586519331e-05,-6.318722444120795e-05,-2.8350259526632726e-05,1.463630633224966e-05
-4.2697880417108536e-05,-0.00011811002332251519,-2.9453589377226308e-05,1.625878212507814e-05
-4.703211016021669e-05,-0.0001394804858136922,-2.6360068659414537e-05,1.862166027422063e-05
-5.2250925364205614e-05,-0.00011375045869499445,-2.1129650122020394e-05,2.093766670441255e-05
-5.667873119818978e-05,-6.770139589207247e-05,-2.0682631657109596e-05,2.0061472241650335e-05
-6.114051211625338e-05,-4.289511707611382e-05,-2.5379549697390758e-05,1.4628522876591887e-05
-5.835779302287847e-05,-3.414063758100383e-05,-2.8023072445648722e-05,1.3814623343932908e-05
-5.5188338592415676e-05,-9.734029845276382e-06,-2.4761729946476407e-05,2.0386974938446656e-05
-5.9572546888375655e-05,3.6953642847947776e-05,-1.97822846530471e-05,2.568420495663304e-05
-6.958584708627313e-05,9.115242573898286e-05,-2.0141935237916186e-05,2.505164775357116e-05
-8.050003816606477e-05,0.00011437921784818172,-2.6215840989607386e-05,1.8635240849107504e-05
-8.015098865143955e-05,7.349342195084319e-05,-3.099588866462e-05,1.154610981757287e-05
-7.98994951765053e-05,1.523855644336436e-05,-3.2315478165401146e-05,9.061213859240524e-06
-8.948482718551531e-05,-3.4759839309117524e-06,-3.6244207876734436e-05,8.878671906131785e-06
-9.690462320577353e-05,1.178590719064232e-05,-3.5654258681461215e-05,1.064461685018614e-05
-9.078747098101303e-05,3.680696681840345e-05,-3.1719886464998126e-05,1.419905947841471e-05
-7.790746894897893e-05,4.6185607061488554e-05,-3.006703991559334e-05,1.6355732441297732e-05
-7.101403753040358e-05,4.084857209818438e-05,-2.7650945412460715e-05,1.5467567209270783e-05
-6.819604459451512e-05,3.402657966944389e-05,-2.7512267479323782e-05,1.4526482118526474e-05
-6.592104909941554e-05,3.169890624121763e-05,-2.7451680580270477e-05,1.6343770766980015e-05
-6.327668961603194e-05,2.6998226530849934e-05,-2.758061782515142e-05,2.064276486635208e-05
-6.243224925128743e-05,2.0125226001255214e-05,-2.6301931939087808e-05,2.179249895561952e-05
-6.184211088111624e-05,1.5726747733424418e-05,-2.1973031834932044e-05,2.0173545635771006e-05
-5.924161450820975e-05,1.2548637641884852e-05,-1.8012604414252564e-05,1.900866482174024e-05
-5.717665044358e-05,4.884819190920098e-06,-1.8420494598103687e-05,2.0425326511031017e-05
-5.4912165069254115e-05,-9.294673873228021e-06,-2.1187437596381642e-05,2.3953840354806744e-05
-5.125128154759295e-05,-1.992142279050313e-05,-2.4698814740986563e-05,2.6245666958857328e-05
-5.069102189736441e-05,-1.9324865206726827e-05,-2.6825604436453432e-05,2.721640885283705e-05
-5.40261207788717e-05,-8.95344783202745e-06,-2.559167296567466e-05,2.7351097742212005e-05
-5.288374813972041e-05,-1.3090193533571437e-06,-2.4163249690900557e-05,2.7862677598022856e-05
-4.3336753151379526e-05,-1.685717165855749e-06,-2.4853270588209853e-05,2.6812169380718842e-05
-3.277416180935688e-05,-9.036763913172763e-06,-2.539553497626912e-05,2.3150256311055273e-05
-2.6145133233512752e-05,-1.9673070710268803e-05,-2.5161214580293745e-05,2.126464642060455e-05
-1.5723813703516498e-05,-2.4828690584399737e-05,-2.8864295018138364e-05,2.2841728423372842e-05
2.620537316033733e-06,-1.929370773723349e-05,-3.381132410140708e-05,2.2703277863911353e-05
1.9794659237959422e-05,-1.1406985322537366e-05,-3.299216041341424e-05,1.891028296086006e-05
2.7614922146312892e-05,-8.24027495127666e-07,-3.21945954055991e-05,1.6524865714018233e-05
2.6924366466118954e-05,1.5642590369679965e-05,-3.316173024359159e-05,1.9584944311645813e-05
2.3691964088357054e-05,3.142591594951227e-05,-3.102017944911495e-05,2.442468576191459e-05
1.892048203444574e-05,3.778152313316241e-05,-2.7646370654110797e-05,2.7738527933252044e-05
6.541538368765032e-06,4.11349865316879e-05,-2.470216350047849e-05,2.8292735805734992e-05
-1.4544175428454764e-05,4.6871748054400086e-05,-2.5076940801227465e-05,2.840823981387075e-05
-3.845927494694479e-05,5.803492240374908e-05,-2.65793532889802e-05,2.7382548068999313e-05
-5.38935128133744e-05,6.869863864267245e-05,-2.4871544155757874e-05,2.563604539318476e-05
-6.50072906864807e-05,7.75935550336726e-05,-2.2101126887719147e-05,2.576582664914895e-05
-7.753437239443883e-05,8.656994759803638e-05,-2.1792793631902896e-05,2.9942437322461046e-05
-9.023869642987847e-05,9.327811858383939e-05,-2.287441566295456e-05,3.3324195101158693e-05
-0.00010232010390609503,0.00010111866140505299,-2.5442475816817023e-05,3.512804687488824e-05
-0.00010927318362519145,0.00011154335516039282,-2.4737342755543068e-05,3.667220880743116e-05
-0.00011057822848670185,0.00012153141142334789,-2.0798239347641356e-05,3.5927918361267075e-05
-0.00010683084838092327,0.00012283655814826488,-1.540217454021331e-05,3.254782495787367e-05
-0.00010023095092037693,0.00011689192615449429,-1.2433920346666127e-05,3.0672272259835154e-05
-9.302257967647165e-05,0.00010729844507295638,-1.1793840712925885e-05,3.241085505578667e-05
-8.971049828687683e-05,9.124496136792004e-05,-1.075516138371313e-05,3.1660820241086185e-05
-8.55278703966178e-05,6.205606769071892e-05,-1.0857217603188474e-05,2.642240360728465e-05
-7.090187136782333e-05,2.529452285671141e-05,-1.0654141078703105e-05,1.9331708244862966e-05
-5.123302253196016e-05,-5.623257038678275e-06,-9.521935680822935e-06,1.5964651538524777e-05
-4.016952516394667e-05,-1.8129314412362874e-05,-7.388536232610932e-06,1.6221094483626075e-05
-3.625925455708057e-05,-1.3832933291269e-05,-4.721047844213899e-06,1.7148784536402673e-05
-3.349834878463298e-05,-1.2006091765215388e-06,-6.084395408834098e-06,1.7624477550270967e-05
-3.1158084311755374e-05,1.3960809155832976e-05,-1.097702443075832e-05,2.052507443295326e-05
-3.1111299904296175e-05,2.9774873837595806e-05,-1.074567626346834e-05,2.3350661649601534e-05
-3.250498775742017e-05,4.1901806980604306e-05,-7.127777735149721e-06,2.5107139663305134e-05
-3.105222276644781e-05,4.606485890690237e-05,-6.04865635978058e-06,2.335954923182726e-05
-2.7870499252458103e-05,3.703124457388185e-05,-8.665549103170633e-06,1.8648661352926865e-05
-2.1429103071568534e-05,8.638734470878262e-06,-1.1828192327811848e-05,1.3597579709312413e-05
-9.294256415159907e-06,-2.975271490868181e-05,-1.2249329301994294e-05,7.74080035625957e-06
7.906050996098202e-06,-5.828241046401672e-05,-8.834043001115788e-06,4.319871095503913e-06
2.5075931262108497e-05,-6.652326555922627e-05,-5.6824155763024464e-06,5.007612799090566e-06
2.975777351821307e-05,-5.242209954303689e-05,-4.191598236502614e-06,8.80025345395552e-06
1.8409480617265217e-05,-3.095464126090519e-05,-7.90203375800047e-06,1.114057067752583e-05
1.6199128367588855e-05,-1.787429573596455e-05,-1.383378457830986e-05,1.308639366470743e-05
3.271018431405537e-05,-1.2171462003607303e-05,-1.6501457139384e-05,1.3022829989495222e-05
4.9186804972123355e-05,-1.3051945643383078e-05,-1.2884191164630465e-05,5.78745721213636e-06
5.015858187107369e-05,-1.9016122678294778e-05,-9.919817784975749e-06,-8.662153959448915e-06
2.831455822160933e-05,-2.2124713723314926e-05,-1.2908250027976464e-05,-2.2603418983635493e-05
-9.514270459476393e-06,-1.302853888773825e-05,-1.8938249922939576e-05,-2.834712176991161e-05
-4.626168083632365e-05,9.875494470179547e-06,-2.3904261979623698e-05,-2.2450114556704648e-05
-6.686826964141801e-05,4.471889405976981e-05,-2.5831499442574568e-05,-5.567399057326838e-06
-8.009655721252784e-05,8.611787779955193e-05,-2.6602592697599903e-05,1.5579256796627305e-05
-0.00010601475514704362,0.00012820411939173937,-2.7137533834320493e-05,3.5122349800076336e-05
-0.00014216780255082995,0.00016068840341176838,-3.024853504030034e-05,5.0006434321403503e-05
-0.00017096310330089182,0.00017607395420782268,-3.268143336754292e-05,6.046209091437049e-05
-0.00017874837794806808,0.00017504228162579238,-2.944212974398397e-05,6.942042091395706e-05
-0.0001582406839588657,0.0001621753617655486,-2.3936347133712843e-05,7.697552064200863e-05
-0.00012223259545862675,0.00013859411410521716,-2.225954995083157e-05,8.077103120740503e-05
-0.00010294352250639349,0.00010831529652932659,-2.389970723015722e-05,7.835547148715705e-05
-0.00010767721687443554,7.995553460204974e-05,-3.0401102776522748e-05,7.220717816380784e-05
-0.00010880550689762458,5.597956260317005e-05,-3.921151437680237e-05,6.843457231298089e-05
-8.403810352319852e-05,3.2997944799717516e-05,-4.5708788093179464e-05,6.550650869030505e-05
-5.546205284190364e-05,2.0967290765838698e-05,-4.4677133701043203e-05,6.385447341017425e-05
-5.4308366088662297e-05,3.6227196687832475e-05,-3.969042154494673e-05,6.085863060434349e-05
-7.456805178662762e-05,6.717056385241449e-05,-4.05888058594428e-05,5.286156010697596e-05
-9.201220382237807e-05,8.419369260082021e-05,-4.4994096242589876e-05,4.146641003899276e-05
-8.827869896776974e-05,7.925592217361555e-05,-4.5057156967232004e-05,3.508969166432507e-05
-6.678426871076226e-05,7.204800203908235e-05,-4.567850919556804e-05,3.788070898735896e-05
-4.327308852225542e-05,7.617251685587689e-05,-5.0097885832656175e-05,4.4575896026799455e-05
-4.4836458982899785e-05,9.36637879931368e-05,-5.4448581067845225e-05,4.925050598103553e-05
-7.611457840539515e-05,0.0001169994575320743,-5.7305365771753713e-05,4.6526776714017615e-05
-0.00010486994142411277,0.00013407522055786103,-6.077818397898227e-05,3.7972240534145385e-05
-0.00011420149530749768,0.00013775998377241194,-6.426657637348399e-05,2.9784980142721906e-05
-0.00011041906691389158,0.00013355178816709667,-6.675985059700906e-05,2.540298009989783e-05
-0.00010355327685829252,0.0001306085760006681,-6.578204920515418e-05,2.2378721041604877e-05
-9.610045526642352e-05,0.00012205055827507749,-6.16555698798038e-05,1.863644502009265e-05
-8.438438817393035e-05,9.632593719288707e-05,-5.720214176108129e-05,1.3344698345463257e-05
-7.077939517330378e-05,5.8234381867805496e-05,-5.4129828640725464e-05,1.047586920321919e-05
-6.0101916460553184e-05,2.5158962671412155e-05,-5.2674942708108574e-05,1.137296021624934e-05
-5.2644609240815043e-05,5.411265192378778e-06,-5.0645216106204316e-05,1.3765995390713215e-05
-4.40705734945368e-05,-6.389286681951489e-06,-4.92296130687464e-05,1.4107647984928917e-05
-3.481649764580652e-05,-1.4282923984865192e-05,-4.7755322157172486e-05,1.0817498150572646e-05
-3.099516834481619e-05,-1.5489276847802103e-05,-4.426521627465263e-05,6.681440481770551e-06
-3.3221756893908605e-05,-1.1145722965011373e-05,-3.8303442124743015e-05,4.443541456566891e-06
-3.542996637406759e-05,-6.156621566333342e-06,-3.2853116863407195e-05,2.6189914024143945e-06
-3.334975190227851e-05,-7.429870493069757e-06,-2.7143489205627702e-05,2.8488236694101943e-06
-2.5888382879202254e-05,-1.480923037888715e-05,-2.46565123234177e-05,5.673919531545835e-06
-1.5773432096466422e-05,-1.6808638974907808e-05,-2.564103670010809e-05,1.0003493116528261e-05
-1.0719731108110864e-05,-1.114592669182457e-05,-2.226604010502342e-05,1.202617113449378e-05
-1.2011481885565445e-05,-5.094221251056297e-06,-1.8945209376397543e-05,1.120552587963175e-05
-1.391458044963656e-05,-2.3538730147265596e-06,-2.0154006051598117e-05,1.2446425898815505e-05
-1.1429377991589718e-05,-5.10996642333339e-06,-1.9307100956211798e-05,1.1576619726838544e-05
-7.415690106427064e-06,-8.749115295358934e-06,-1.5298275684472173e-05,8.912837074603885e-06
-1.001923101284774e-05,-1.521205012977589e-05,-9.970508472179063e-06,9.200951353705022e-06
-1.5002219697635155e-05,-2.200486051151529e-05,-7.899787306087092e-06,1.1253656339249574e-05
-1.3368899089982733e-05,-1.825165600166656e-05,-7.774175173835829e-06,1.0379333616583608e-05
-1.271206019737292e-05,-8.936705853557214e-06,-4.988879027223447e-06,1.0490019121789373e-05
-1.7278827726840973e-05,-1.9412534584262175e-06,-3.0644644084532047e-06,1.3372696230362635e-05
-2.3147242245613597e-05,-3.441612363985769e-07,-5.773226348537719e-06,1.551392415422015e-05
-2.3863800379331224e-05,-2.8275485419726465e-06,-8.054582394834142e-06,1.5145332326937933e-05
-2.3103195417206734e-05,-7.182701210695086e-06,-7.251989700307604e-06,1.531464840809349e-05
-2.5275643565692008e-05,-1.1109746992588043e-05,-5.706425781681901e-06,1.649415571591817e-05
-2.7805997888208367e-05,-1.4568436199624557e-05,-4.84029806102626e-06,1.613945460121613e-05
-2.9175589588703588e-05,-1.4764059415028896e-05,-3.992890015069861e-06,1.4833881323284004e-05
-3.1193983886623755e-05,-1.1448682016634848e-05,-3.5446153106022393e-06,1.3436964763968717e-05
-3.0191447876859456e-05,-1.0910927812801674e-05,-5.522674655367155e-06,1.1522333807079121e-05
-1.9388506188988686e-05,-1.7439950170228258e-05,-7.644298420927953e-06,1.2245774996699765e-05
-7.147300038923277e-06,-2.535732892283704e-05,-8.8660599431023e-06,1.6473793948534876e-05
-4.525674285105197e-06,-2.5837613065959886e-05,-1.0585459676804021e-05,1.8082351743942127e-05
-7.632942470081616e-06,-2.1608489987556823e-05,-1.3851306903234217e-05,1.626645098440349e-05
-6.241334176593227e-06,-1.9213175619370304e-05,-1.600733412487898e-05,1.351786977465963e-05
3.2978377930703573e-06,-1.9894283468602225e-05,-1.3099886928102933e-05,1.2409834198479075e-05
1.5982363038347103e-05,-2.1953244868200272e-05,-2.0381312424433418e-06,7.435758107021684e-06
1.2405439520080108e-05,-2.44014026975492e-05,1.0628503332554828e-05,-1.0795514754136093e-05
-8.605264156358317e-06,-2.80620988633018e-05,1.9072133000008762e-05,-3.815428135567345e-05
-2.7942138331127353e-05,-2.8511918571894057e-05,2.2779877326684073e-05,-6.828040204709396e-05
-3.715202183229849e-05,-2.2319352865451947e-05,1.91263752640225e-05,-0.00010920855129370466
-4.2284445953555405e-05,-1.2203406186017673e-05,1.2156625416537281e-05,-0.0001557984942337498
-5.8140241890214384e-05,-3.491912593744928e-06,9.466041774430778e-06,-0.0001619562244741246
-8.312693535117432e-05,-2.108232592945569e-06,1.2353967576927971e-05,-0.0001266863982891664
-9.51089896261692e-05,-1.707900628389325e-05,1.625354343559593e-05,-9.350530308438465e-05
-9.973665146389976e-05,-3.758200182346627e-05,1.8055496184388176e-05,-7.915346213849261e-05
-0.00010778915020637214,-3.471914533292875e-05,1.902658368635457e-05,-6.562181079061702e-05
-0.00011554163211258128,-1.0361582098994404e-05,1.8215045201941393e-05,-2.2145803086459637e-05
-0.00011828940478153527,2.211672290286515e-05,1.8362406990490854e-05,3.779297912842594e-05
-0.00010847325756913051,4.7514200559817255e-05,1.7701888282317668e-05,9.751012839842588e-05
-9.364279685541987e-05,4.8583242460154e-05,8.749097105464898e-06,0.00014549439947586507
-7.903101504780352e-05,2.1530107915168628e-05,-7.946440746309236e-06,0.00017796507745515555
-5.9948593843728304e-05,-1.3026544365857262e-05,-2.3982211132533848e-05,0.0001922482333611697
-3.9728816773276776e-05,-3.413718877709471e-05,-3.08713861159049e-05,0.0001934595056809485
-2.2328918930725195e-05,-3.027677485079039e-05,-3.122458656434901e-05,0.00019398529548197985
-8.885159331839532e-06,-2.986475237776176e-06,-3.687961361720227e-05,0.00019553220772650093
-2.309629962837789e-06,3.618395930971019e-05,-5.600473377853632e-05,0.00019169221923220903
-1.3394724192039575e-05,7.731816731393337e-05,-8.786033868091181e-05,0.00017922605911735445
-4.86768658447545e-05,0.00011518390238052234,-0.00012599410547409207,0.00016511730791535228
-9.50358880800195e-05,0.00013695233792532235,-0.0001607852609595284,0.00015097986033651978
-0.00012701349623966962,0.00012981565669178963,-0.0001831169647630304,0.0001302385062444955
-0.00013009674148634076,0.00011113509390270337,-0.00018535710114520043,9.098769078264013e-05
-0.00011520591942826286,0.00010989133443217725,-0.00016533886082470417,4.357942452770658e-05
-0.0001103679314837791,0.00013879766629543155,-0.00013143142859917134,6.035337491994142e-07
-0.00012721192615572363,0.0001845137303462252,-9.859348210738972e-05,-3.8629863411188126e-05
-0.00014136296522337943,0.0002227181539637968,-7.214561628643423e-05,-6.58427452435717e-05
-0.0001279950956813991,0.00022893189452588558,-4.411034387885593e-05,-8.860749949235469e-05
-9.663547098170966e-05,0.00020401339861564338,-1.3921775462222286e-05,-0.00013448073877952993
-6.738452793797478e-05,0.00015666471153963357,1.4220847333490383e-05,-0.00023010399308986962
-4.3301002733642235e-05,0.00010337986896047369,2.829621735145338e-05,-0.00031194969778880477
-2.787659650493879e-05,5.974350278847851e-05,3.309149178676307e-05,-0.00028652805485762656
-1.911961953737773e-05,2.6732359401648864e-05,4.7371020627906546e-05,-0.00020015901827719063
-1.9989356587757356e-05,2.8289075544307707e-06,6.902321183588356e-05,-0.00014230988745111972
-3.03027372865472e-05,-1.2873307241534349e-05,9.420497372047976e-05,-0.00012507666542660445
-4.1422550566494465e-05,-2.014280471485108e-05,0.00011892388283740729,-8.136929682223126e-05
-5.047970262239687e-05,-2.367616798437666e-05,0.00014572184591088444,8.812981832306832e-06
-5.3175815992290154e-05,-2.4933795430115424e-05,0.00017177774861920625,0.00012437169789336622
-4.9451005907030776e-05,-2.4794489945634268e-05,0.00019572355085983872,0.00022596748021896929
-4.3867425119969994e-05,-2.2684096620650962e-05,0.00021578163432423025,0.0002879280364140868
-3.6247511161491275e-05,-1.188550413644407e-05,0.00022127416741568595,0.000303453067317605
-2.8020596801070496e-05,1.534288821858354e-05,0.0002015131467487663,0.00028679854585789144
-1.9382492610020563e-05,5.6398024753434584e-05,0.00015847304894123226,0.000274815276497975
-1.2417175639711786e-05,9.258091449737549e-05,9.539866005070508e-05,0.0002801285882014781
-1.3754684005107265e-05,0.0001028830956784077,1.5215849998639897e-05,0.0002887164882849902
-2.0979836335754953e-05,9.017323463922366e-05,-6.915989797562361e-05,0.0002831866149790585
-2.4130960809998214e-05,7.481229113182053e-05,-0.00015544556663371623,0.00027155480347573757
-1.8506831111153588e-05,6.804646545788273e-05,-0.00024984433548524976,0.0002592512173578143
-7.663193173357286e-06,7.005264342296869e-05,-0.00034473062260076404,0.0002512603241484612
1.8187195109931054e-06,7.608713349327445e-05,-0.00040803776937536895,0.00023639707069378346
9.291622518503573e-06,7.199412357294932e-05,-0.0004182143893558532,0.0002047778107225895
2.2592630557483062e-05,4.284776150598191e-05,-0.0003882727469317615,0.00015843177970964462
3.17933845508378e-05,4.9663444769976195e-06,-0.00034815171966329217,0.00011562765575945377
2.2664127754978836e-05,-1.4959412510506809e-05,-0.00031564003438688815,8.419554069405422e-05
1.7744957858667476e-06,-1.8956492567667738e-05,-0.0002803235547617078,5.829150541103445e-05
-2.2419821107177995e-05,-1.2738373698084615e-05,-0.00023352348944172263,2.983361264341511e-05
-4.925134635413997e-05,-2.5817082587309415e-06,-0.00018440606072545052,-3.1181359645415796e-06
-7.666115561733022e-05,-1.2520073369159945e-06,-0.00014801183715462685,-3.235345138818957e-05
-9.993994171964005e-05,1.6700575997674605e-06,-0.00012734040501527488,-5.327871622284874e-05
-0.0001068184501491487,1.6067599062807858e-05,-0.00010671514610294253,-7.109866419341415e-05
-0.0001006644670269452,2.7306512492941692e-05,-8.900739339878783e-05,-7.869986438890919e-05
-8.941872511059046e-05,3.120601468253881e-05,-7.996184285730124e-05,-8.21313660708256e-05
-8.305192750412971e-05,3.555557850631885e-05,-7.904837548267096e-05,-8.079986582743004e-05
-8.827486453810707e-05,4.773184991790913e-05,-7.645647565368563e-05,-7.775394624331966e-05
-9.53189010033384e-05,6.129318353487179e-05,-7.038897456368431e-05,-8.019204688025638e-05
-9.903624595608562e-05,6.468187348218635e-05,-6.31041984888725e-05,-8.69493669597432e-05
-9.647367551224306e-05,5.4681735491612926e-05,-5.631938256556168e-05,-9.071607928490266e-05
-9.318762022303417e-05,3.913687396561727e-05,-4.45383666374255e-05,-8.512646309100091e-05
-9.062177559826523e-05,3.3154257835121825e-05,-2.5105084205279127e-05,-7.746519986540079e-05
-8.876659558154643e-05,3.631492654676549e-05,-7.397265562758548e-06,-7.343293691519648e-05
-9.066634811460972e-05,3.8726961065549403e-05,5.394671916292282e-06,-7.248075417010114e-05
-9.804803994484246e-05,3.531022957758978e-05,1.6497071555932052e-05,-6.877427222207189e-05
-0.00010192004992859438,3.3911615901160985e-05,2.95027293759631e-05,-6.234217289602384e-05
-9.795958612812683e-05,3.789057154790498e-05,3.776601442950778e-05,-5.604331454378553e-05
-9.154540748568252e-05,4.202845593681559e-05,4.042655200464651e-05,-5.382788731367327e-05
-7.962589734233916e-05,4.271682701073587e-05,4.191441257717088e-05,-5.013444751966745e-05
-6.118072633398697e-05,4.3146330426679924e-05,4.7043122322065756e-05,-4.69615297333803e-05
-4.6400335122598335e-05,4.570875898934901e-05,5.277200762066059e-05,-4.4004558731103316e-05
-4.223908399580978e-05,4.7230882046278566e-05,5.7313543948112056e-05,-4.191418338450603e-05
-4.0522802009945735e-05,4.376241486170329e-05,6.075826968299225e-05,-4.2886305891443044e-05
-3.789377660723403e-05,3.756743171834387e-05,6.555869913427159e-05,-4.326980342739262e-05
-3.640310023911297e-05,2.9478469514288008e-05,6.63708196952939e-05,-3.628642298281193e-05
-3.302011828054674e-05,1.9616125428001396e-05,6.655023025814444e-05,-3.2486776035511866e-05
-2.7570267775445245e-05,1.2406162568368018e-05,6.759669486200437e-05,-5.186647831578739e-05
-2.355921606067568e-05,7.323101272049826e-06,6.68174252496101e-05,-7.682872092118487e-05
-2.2435497157857753e-05,4.856913164985599e-06,6.814875814598054e-05,-7.618324889335781e-05
-2.6167546820943244e-05,2.61913532995095e-06,7.017023744992912e-05,-5.490082548931241e-05
-2.802609742502682e-05,3.3128176255559083e-06,6.957827281439677e-05,-2.6726882424554788e-05
-2.2486736270366237e-05,8.271579645224847e-06,6.31375442026183e-05,-1.1760486813727766e-05
-1.9006862203241326e-05,1.3988699720357545e-05,5.538119876291603e-05,-7.631505468452815e-06
-2.4312768800882623e-05,1.8267995983478613e-05,5.052868800703436e-05,-1.559495643732589e-07
-3.1714684155303985e-05,2.078369834634941e-05,4.5827498979633674e-05,1.0618336091283709e-05
-3.412413570913486e-05,1.820751822378952e-05,4.2153140384471044e-05,1.8769171219901182e-05
-2.677920383575838e-05,1.3277690413815435e-05,3.7513796996790916e-05,2.6261503080604598e-05
-1.8357479348196648e-05,1.4138703591015656e-05,3.203910091542639e-05,3.649121572379954e-05
-1.9777007764787413e-05,2.0061923351022415e-05,3.154612932121381e-05,4.774806438945234e-05
-2.4717432097531855e-05,2.2847234504297376e-05,3.392043799976818e-05,5.687818702426739e-05
-2.6900162993115373e-05,1.9731942302314565e-05,3.288754669483751e-05,6.467955972766504e-05
-2.746286008914467e-05,1.027978396450635e-05,2.8632757675950415e-05,7.15863352525048e-05
-3.0382581826415844e-05,-1.650502440497803e-06,2.7403426429373212e-05,7.148565782699734e-05
-3.480336454231292e-05,-5.069951384939486e-06,2.819348082994111e-05,6.562528142239898e-05
-3.820285928668454e-05,2.4481941807152907e-08,2.548317024775315e-05,5.933930151513778e-05
-4.036802056361921e-05,1.8786032569551026e-06,1.9990669898106717e-05,5.716003215638921e-05
-3.977259257226251e-05,1.142020209954353e-06,1.780457387212664e-05,5.7269589888164774e-05
-3.6212510167388245e-05,7.993407962203491e-06,1.637460445635952e-05,5.7900844694813713e-05
-3.164496229146607e-05,1.7667485735728405e-05,8.923769200919196e-06,5.487407906912267e-05
-3.1842762837186456e-05,2.2808435460319743e-05,-3.6959588669560617e-06,4.8765599785838276e-05
-3.925249257008545e-05,2.7061438231612556e-05,-1.3876489902031608e-05,4.3321993871359155e-05
-4.7349833039334044e-05,3.185911555192433e-05,-1.734065153868869e-05,4.155653732595965e-05
-5.1363535021664575e-05,3.628976264735684e-05,-1.4750781701877713e-05,3.9821472455514595e-05
-4.9073783884523436e-05,3.861226650769822e-05,-5.549808975047199e-06,3.5453740565571934e-05
-4.224683652864769e-05,3.356418892508373e-05,4.380067366582807e-06,2.8867836590507068e-05
-3.7302685086615384e-05,2.8532078431453556e-05,7.384492619166849e-06,2.5796101908781566e-05
-3.7683068512706086e-05,2.7674546799971722e-05,7.033323527139146e-06,2.7216539820074104e-05
-3.926908175344579e-05,3.38816644216422e-05,3.3858875667647226e-06,2.8918206226080656e-05
-4.2221214243909344e-05,4.396156873553991e-05,-5.62000695936149e-06,2.608472277643159e-05
-4.5117310946807265e-05,4.76406748930458e-05,-2.4725948605919257e-05,2.3985923689906485e-05
-4.70763370685745e-05,4.067733607371338e-05,-5.563176455325447e-05,2.365713044127915e-05
-4.798959707841277e-05,2.781037073873449e-05,-8.970176713773981e-05,2.451050022500567e-05
-4.806962897418998e-05,1.6108406271087006e-05,-0.0001037637994159013,2.4825925720506348e-05
-4.9940510507440194e-05,1.3583397958427668e-05,-9.096209396375343e-05,2.6659417926566675e-05
-5.4673819249728695e-05,1.9920620616176166e-05,-6.766578735550866e-05,2.963786755572073e-05
-6.19681813986972e-05,2.4713650418561883e-05,-4.954019095748663e-05,3.2442068913951516e-05
-6.916927668498829e-05,2.6673262254917063e-05,-4.384308704175055e-05,3.1617651984561235e-05
-7.884928345447406e-05,3.090145401074551e-05,-4.4000295019941404e-05,2.430530366837047e-05
-8.44937821966596e-05,3.764513894566335e-05,-4.4121530663687736e-05,1.8468066627974622e-05
-8.254984277300537e-05,4.113647446502e-05,-3.929815284209326e-05,1.872604298114311e-05
-7.842559716664255e-05,4.399775207275525e-05,-3.321100666653365e-05,2.1682551960111596e-05
-7.683053991058841e-05,4.905307650915347e-05,-3.0384720957954414e-05,2.3272590624401346e-05
-7.408320379909128e-05,5.3180756367510185e-05,-3.1280233088182285e-05,2.6002804588642903e-05
-6.798440881539136e-05,5.122361108078621e-05,-3.367791941855103e-05,2.5803179596550763e-05
-6.379640399245545e-05,4.320807784097269e-05,-3.873341847793199e-05,2.359052814426832e-05
-5.962967043160461e-05,3.5273122193757445e-05,-4.45647347078193e-05,2.31214398809243e-05
-5.0121852837037295e-05,3.2089315936900675e-05,-4.955491021974012e-05,2.7667803806252778e-05
-4.486382385948673e-05,3.227257548132911e-05,-5.5385295127052814e-05,3.1103430956136435e-05
-5.0746453780448064e-05,3.135846782242879e-05,-5.67268070881255e-05,3.107104930677451e-05
-5.3122450481168926e-05,2.892626253014896e-05,-5.300544944475405e-05,2.759943890850991e-05
-5.179015715839341e-05,3.139794716844335e-05,-5.071639679954387e-05,2.5126084437943064e-05
-5.609355866909027e-05,3.397613545530476e-05,-5.012340625398792e-05,2.632191899465397e-05
-6.217118789209053e-05,3.6958721466362476e-05,-4.835236177314073e-05,2.664274870767258e-05
-6.31704751867801e-05,3.744465357158333e-05,-4.5568387577077374e-05,2.539400702517014e-05
-5.8092169638257474e-05,3.3085747418226674e-05,-4.505769902607426e-05,2.3184393285191618e-05
-5.317551767802797e-05,3.971982005168684e-05,-4.2455420043552294e-05,2.0897316062473692e-05
-4.7922905650921166e-05,5.174928082851693e-05,-3.624000964919105e-05,2.2720570996170864e-05
-4.269308556104079e-05,5.714963481295854e-05,-3.457065031398088e-05,2.8084474251954816e-05
-4.172487751930021e-05,5.34018108737655e-05,-3.660437505459413e-05,3.0979015718912706e-05
-4.1573421185603365e-05,4.318267383496277e-05,-4.0751656342763454e-05,2.9221497243270278e-05
-3.911340536433272e-05,3.355071021360345e-05,-4.3763822759501636e-05,2.510162812541239e-05
-3.920766175724566e-05,3.0209745091269724e-05,-4.3633506720652804e-05,2.105643943650648e-05
-4.510127837420441e-05,3.0063501981203444e-05,-4.084988177055493e-05,2.0270219465601258e-05
-4.787894067703746e-05,2.658451921888627e-05,-3.641520379460417e-05,2.235384818050079e-05
-4.509792779572308e-05,1.910235187096987e-05,-3.0779759981669486e-05,2.4074592147371732e-05
-4.350801100372337e-05,1.4549168554367498e-05,-2.7507661798154004e-05,2.3260005036718212e-05
-4.540592635748908e-05,1.8421151253278367e-05,-2.8265219953027554e-05,2.0031446183566004e-05
-4.5468925236491486e-05,2.785047036013566e-05,-2.9635157261509448e-05,1.7768858015188016e-05
-4.3288429878884926e-05,3.5217806725995615e-05,-3.0584244086639956e-05,1.7679178199614398e-05
-4.075940523762256e-05,3.57276076101698e-05,-3.006146289408207e-05,1.8725168047240004e-05
-3.6757628549821675e-05,3.409717828617431e-05,-2.7281694201519713e-05,1.976432031369768e-05
-3.5499622754286975e-05,3.209873102605343e-05,-2.6190471544396132e-05,2.192527063016314e-05
-4.4569267629412934e-05,2.9562670533778146e-05,-2.923415377154015e-05,2.5712188289617188e-05
-5.467984010465443e-05,3.2248193747363985e-05,-3.05062403640477e-05,2.9179116609157063e-05
-5.4525149607798085e-05,4.6378117986023426e-05,-2.519936242606491e-05,3.1775842217030004e-05
-4.944477404933423e-05,6.410977221094072e-05,-1.9148194041918032e-05,3.66167223546654e-05
-4.551755773718469e-05,6.97455761837773e-05,-1.6629419405944645e-05,4.2181844037259e-05
-4.3718930101022124e-05,6.524746277136728e-05,-1.7443400793126784e-05,4.273204103810713e-05
-4.3293210183037445e-05,5.887527731829323e-05,-2.19581324927276e-05,3.778457539738156e-05
-4.200239709462039e-05,5.391699596657418e-05,-2.3837648768676445e-05,3.221423685317859e-05
-4.3214491597609594e-05,5.0712038500932977e-05,-2.3988606699276716e-05,2.8783160814782605e-05
-4.803318006452173e-05,4.441856435732916e-05,-2.5509340048301965e-05,3.032353015441913e-05
-5.4485346481669694e-05,3.518777521094307e-05,-2.5891537006828003e-05,3.289432788733393e-05
-6.1013848608126864e-05,2.593094359326642e-05,-2.2685031581204385e-05,3.319502138765529e-05
-6.218595808604732e-05,1.6082463844213635e-05,-1.8970269593410194e-05,2.8550139177241363e-05
-5.787084955954924e-05,7.834922143956646e-06,-1.757985410222318e-05,2.4482927983626723e-05
-5.034553032601252e-05,5.925779532844899e-06,-1.6266141756204888e-05,2.2831593014416285e-05
-4.750183143187314e-05,7.153038040996762e-06,-1.6164249245775864e-05,2.0360657799756154e-05
-4.905851892544888e-05,8.389084541704506e-06,-1.781013452273328e-05,2.0771374693140388e-05
-4.668937617680058e-05,8.136985343298875e-06,-1.9486285964376293e-05,2.303487235622015e-05
-3.60618214472197e-05,5.527395387616707e-06,-1.9489785699988715e-05,2.471860352670774e-05
-2.297854189237114e-05,2.0814027266169433e-06,-1.8457609257893637e-05,2.3957230951054953e-05
-1.41130767588038e-05,-3.63030812877696e-06,-1.6583424439886585e-05,2.3670614609727636e-05
-1.272037025046302e-05,-1.2017592780466657e-05,-1.5026890650915448e-05,2.5777449991437607e-05
-1.774247175490018e-05,-1.893666740215849e-05,-1.581901597091928e-05,2.6577235985314474e-05
-2.4803377527859993e-05,-2.0277944713598117e-05,-1.9226576114306226e-05,2.2402902686735615e-05
-3.31077171722427e-05,-1.4134890079731122e-05,-2.2293164875009097e-05,1.8615215594763868e-05
-4.038934639538638e-05,4.91251648782054e-06,-2.1378211386036128e-05,2.0226387277944013e-05
-4.421346602612175e-05,3.799136175075546e-05,-1.6359057553927414e-05,2.4704217139515094e-05
-4.9391939683118835e-05,7.523141539422795e-05,-6.671443770756014e-06,2.9731319955317304e-05
-6.056788333808072e-05,0.00010495484457351267,3.1965921607479686e-06,3.4509033866925165e-05
-7.465141243301332e-05,0.0001144217822002247,5.76100228499854e-06,3.5539600503398106e-05
-8.877044456312433e-05,9.313441842095926e-05,5.471667918754974e-06,3.072196341236122e-05
-9.941060125129297e-05,5.325531674316153e-05,1.558471194584854e-05,1.7301868865615688e-05
-0.00010143798863282427,9.934979971149005e-06,4.0242150134872645e-05,4.717474894277984e-06
-8.909849566407502e-05,-1.3233468962425832e-05,5.26902949786745e-05,4.611994881997816e-06
-6.862347072456032e-05,-3.3908718251041137e-06,2.3831409635022283e-05,1.7336216842522845e-05
-5.69486765016336e-05,2.3833235900383443e-05,-1.5592200725222938e-05,3.9274353184737265e-05
-5.551536742132157e-05,5.442328256322071e-05,-2.7474065063870512e-05,5.9194760979153216e-05
-5.323013101588003e-05,7.431030826410279e-05,-2.34248218475841e-05,6.554283754667267e-05
-4.437486131791957e-05,7.897197792772204e-05,-2.7889527700608596e-05,5.5206870456459e-05
-3.577576717361808e-05,7.116336200851947e-05,-5.0891594582935795e-05,4.0747589082457125e-05
-3.646088225650601e-05,6.41782971797511e-05,-9.09704394871369e-05,3.239933357690461e-05
-4.3942476622760296e-05,6.664652755716816e-05,-0.00014328159159049392,3.0164032068569213e-05
-5.31367513758596e-05,7.767514034640044e-05,-0.00018907204503193498,3.312030094093643e-05
-5.909519313718192e-05,8.676508878124878e-05,-0.0002098690893035382,4.01446086470969e-05
-6.13420270383358e-05,8.177393465302885e-05,-0.0002070381015073508,4.5736480387859046e-05
-6.0160331486258656e-05,5.8892583183478564e-05,-0.00019314246310386807,4.677545075537637e-05
-6.091286923037842e-05,3.115712752332911e-05,-0.00016591066378168762,4.056441684952006e-05
-6.706544809276238e-05,1.4633206774306018e-05,-0.00011627442290773615,2.8422866307664663e-05
-7.427360833389685e-05,7.969467333168723e-06,-5.775438330601901e-05,1.215698921441799e-05
-7.596939394716173e-05,-5.531107944989344e-06,-1.0380229468864854e-05,-1.1952273780480027e-05
-7.000970072112978e-05,-3.895319969160482e-05,2.0248287910362706e-05,-3.446459231781773e-05
-5.3993364417692646e-05,-7.960026414366439e-05,3.599835326895118e-05,-3.871256558340974e-05
-2.8345530154183507e-05,-0.00010289259807905182,4.481405994738452e-05,-2.540736022638157e-05
-3.5546013350540306e-06,-0.00010305830073775724,6.112700066296384e-05,-8.9562436187407e-06
1.3101067452225834e-05,-9.973246051231399e-05,7.912886940175667e-05,3.7685631468775682e-06
1.8492026356398128e-05,-9.170792327495292e-05,8.083540888037533e-05,8.170365617843345e-06
1.4436966011999175e-05,-6.97207433404401e-05,7.784037734381855e-05,6.629798463109182e-06
9.466558367421385e-06,-3.3375203202012926e-05,0.00010680685954866931,1.4222612662706524e-05
1.6213303752010688e-05,2.110894911311334e-06,0.0001731376105453819,3.9887036109576e-05
4.4346757931634784e-05,-1.0113401913258713e-05,0.00025884329807013273,7.195500074885786e-05
8.008098666323349e-05,-9.801104897633195e-05,0.0003084148920606822,9.130637045018375e-05
0.00010333482350688428,-0.000184433811227791,0.00029461333178915083,8.939469989854842e-05
0.00010786179336719215,-0.00015906021872069687,0.00024343236873392016,6.895964907016605e-05
8.92475072760135e-05,-2.4188606403185986e-05,0.00018316652858629823,4.624490247806534e-05
5.368771235225722e-05,0.00013872540148440748,0.00015943725884426385,3.984272188972682e-05
1.0867653145396616e-05,0.0002313261793460697,0.00015910826914478093,5.2401443099370226e-05
-1.2593822248163633e-05,0.00018316540808882564,0.00012099455489078537,7.144200935726985e-05
-1.5397511106129969e-06,4.15596405218821e-05,1.8742954125627875e-05,8.451590838376433e-05
2.300620144524146e-05,-4.455434827832505e-05,-0.00010662350541679189,8.61320731928572e-05
2.1010569980717264e-05,2.4406956072198227e-05,-0.00020076008513569832,6.954705168027431e-05
-3.867665145662613e-05,0.00020024411787744612,-0.00021745017147623003,3.162323992000893e-05
-0.00014156340330373496,0.0003392695798538625,-0.0002084778534481302,-1.081063146557426e-05
-0.00023072735348250717,0.00034142244840040803,-0.0002853968180716038,-2.9948818337288685e-05
-0.00026302217156626284,0.0002296679886057973,-0.00044978814548812807,-2.22349935938837e-05
-0.0002496761444490403,0.00010522188676986843,-0.0005798451602458954,-7.722885129624046e-06
-0.00022737654217053205,6.876557017676532e-05,-0.000567070092074573,-5.11695361637976e-06
-0.00021800195099785924,0.00013031547132413834,-0.00043692757026292384,-1.943322604347486e-05
-0.00021579886379186064,0.00020084767311345786,-0.0002965184103231877,-4.125430132262409e-05
-0.00021179010218475014,0.00021295211627148092,-0.00022718514082953334,-5.1718452596105635e-05
-0.00020637815759982914,0.0001879213668871671,-0.00021931849187240005,-4.8475103540113196e-05
-0.00019544403767213225,0.00014023398398421705,-0.00020627396588679403,-4.395680662128143e-05
-0.000172903120983392,5.215040437178686e-05,-0.00015113317931536585,-3.5758796002482995e-05
-0.00014538937830366194,-1.2586417142301798e-05,-9.187582327285782e-05,-1.9856030121445656e-05
-0.00012147627421654761,3.214351090718992e-05,-4.9677782953949645e-05,-6.575121460627997e-06
-9.468743519391865e-05,0.00015340330719482154,4.6654690777359065e-08,-2.9739201181655517e-06
-6.753078196197748e-05,0.00026193741359747946,0.00010164611740037799,9.983746167563368e-07
-5.717318344977684e-05,0.0003270062734372914,0.00025693755014799535,2.25122130359523e-06
-5.22904701938387e-05,0.0003473075630608946,0.0003528882807586342,3.138243755529402e-06
-4.439309486770071e-05,0.00031686306465417147,0.00033395327045582235,1.8772645489661954e-05
-3.2260813895845786e-05,0.00021983224723953754,0.00023684032203163952,4.583015834214166e-05
-1.5199860172288027e-05,6.654485332546756e-05,8.278590394183993e-05,8.051928307395428e-05
-1.2246089227119228e-06,-7.116832421161234e-05,-7.404107600450516e-05,0.00010563380783423781
8.449568440482835e-07,-0.00014688361261505634,-0.00020321500778663903,0.00010007705714087933
-6.177469003887381e-06,-0.00019497255561873317,-0.0002917870879173279,6.0602436860790476e-05
-5.668150151905138e-06,-0.00026060023810714483,-0.00028772014775313437,9.250011316908058e-06
5.08466064275126e-06,-0.0003044843324460089,-0.00012912816600874066,-1.771754068613518e-05
1.723356581351254e-05,-0.0002722689532674849,0.00012620391498785466,-4.563537174817611e-07
1.8649969206308015e-05,-0.0001719665597192943,0.0003408995980862528,4.958315912517719e-05
7.85472002462484e-06,-6.302768451860175e-05,0.00042249143007211387,8.843070827424526e-05
-1.7234193364856765e-05,-4.913048087473726e-06,0.0003660564834717661,7.845155050745234e-05
-5.555763345910236e-05,-1.6579106159042567e-05,0.00025069425464607775,1.9008390154340304e-05
-9.534737910144031e-05,-9.216572652803734e-05,0.0001312275417149067,-5.6156775826821104e-05
-0.00012114542914787307,-0.00018777076911646873,-2.1999574528308585e-05,-0.00010589478915790096
-0.00013411430700216442,-0.00023265229538083076,-0.0002264908398501575,-9.830126509768888e-05
-0.00014089283649809659,-0.0002111077483277768,-0.0004060205246787518,-3.2901851227506995e-05
-0.00013419069000519812,-0.00018362818809691817,-0.0004642999265342951,5.4412779718404636e-05
-0.00010641347034834325,-0.00018342635303270072,-0.00036425990401767194,0.00011629806976998225
-6.20055798208341e-05,-0.00019111373694613576,-0.00019771314691752195,0.0001264607853954658
-2.484046490280889e-05,-0.00017409241991117597,-9.34604904614389e-05,9.020639845402911e-05
-1.206025444844272e-05,-0.00011845202971016988,-8.015621278900653e-05,4.109295696252957e-05
-1.2867082659795415e-05,-5.2988041716162115e-05,-0.00010271133214700967,1.0859614121727645e-05
-2.293838952027727e-05,1.0829865459527355e-05,-0.00011251628893660381,2.5720132725837175e-06
-3.9890033804113045e-05,8.362256630789489e-05,-0.00010055773600470275,7.151156296458794e-06
-5.2483228500932455e-05,0.00014033415936864913,-8.485567377647385e-05,2.198700349254068e-05
-4.8884336138144135e-05,0.00016171119932550937,-4.767663267557509e-05,5.05639000039082e-05
-2.9951856049592607e-05,0.00017356516036670655,-7.3837341005855706e-06,7.245894812513143e-05
-1.072181748895673e-05,0.00019648839952424169,1.0823123375303112e-05,6.332105112960562e-05
2.861604855297628e-07,0.0002016947400989011,4.389006062410772e-05,1.9371296730241738e-05
-7.939148076729907e-07,0.00019995152251794934,7.817627192707732e-05,-4.1429455450270325e-05
-8.709499525139108e-06,0.0002228522498626262,5.828826397191733e-05,-7.727643242105842e-05
-1.7563830624567345e-05,0.00024232533178292215,-1.7880085579236038e-05,-5.673887062584981e-05
-9.812349162530154e-06,0.0001961259840754792,-8.606965275248513e-05,6.660726739937672e-06
1.354290361632593e-05,8.105258166324347e-05,-9.01432940736413e-05,6.791196938138455e-05
3.7725749280070886e-05,-3.146812741761096e-05,-2.8016102078254335e-05,9.332494664704427e-05
4.3583793740253896e-05,-7.70858459873125e-05,5.107733886688948e-05,7.9800644016359e-05
2.338966260140296e-05,-6.413363735191524e-05,9.590510308044031e-05,4.380790051072836e-05
-7.532017662015278e-06,-5.8454865211388096e-05,0.0001033838270814158,6.589639269805048e-06
-3.226044282200746e-05,-8.595088729634881e-05,0.00010903983638854697,-1.7396061593899503e-05
-4.4615437218453735e-05,-0.00010203776037087664,0.000132526591187343,-2.6785002773976885e-05
-4.649084803531878e-05,-6.0319820477161556e-05,0.0001519628131063655,-2.50306347879814e-05
-4.1646475438028574e-05,2.0371380742290057e-05,0.00011552359501365572,-6.694712737953523e-06
-3.959503010264598e-05,8.219650771934539e-05,1.463970534132386e-06,3.271731475251727e-05
-5.090347622171976e-05,0.00011635789996944368,-0.00011624451144598424,7.753355021122843e-05
-8.711151167517528e-05,0.0001752431271597743,-0.00014837904018349946,0.00010622516856528819
-0.00013734032108914107,0.0002393267786828801,-0.0001311134110437706,0.00011030780297005549
-0.00016736736870370805,0.00023442466044798493,-0.00014193730021361262,9.24318446777761e-05
-0.0001570450112922117,0.0001635674707358703,-0.00014819030184298754,6.450324872275814e-05
-0.000123483594506979,9.685556869953871e-05,-9.079174924409017e-05,3.558948083082214e-05
-9.042859164765105e-05,7.529118738602847e-05,-3.665493977678125e-06,1.305959540331969e-05
-7.0233887527138e-05,8.540834824088961e-05,3.619750350480899e-05,1.2668284625760862e-06
-5.703684291802347e-05,7.241467392304912e-05,1.1002071005350444e-05,-3.5670479974214686e-06
-3.6981062294216827e-05,2.9003700547036715e-05,-1.7892797643526137e-07,-5.7381212172913365e-06
-2.0416086044861004e-05,-1.3677093193109613e-05,6.020548607921228e-05,-7.009200089669321e-06
-2.677220072655473e-05,-4.5921540731796995e-05,0.00013142108218744397,6.002803274895996e-06
-3.922478572349064e-05,-5.412545579019934e-05,0.0001580317912157625,3.095614010817371e-05
-3.340616967761889e-05,-5.614422479993664e-05,0.0001509543799329549,4.871241981163621e-05
-1.9121323930448852e-05,-5.5029500799719244e-05,0.0001305969781242311,5.178613355383277e-05
-1.1577126315387432e-05,-4.103679384570569e-05,0.00010019417823059484,4.31972584920004e-05
-7.717538210272323e-06,-4.037424150737934e-05,6.691454473184422e-05,2.3850760044297203e-05
-1.0208897037955467e-05,-4.746442209579982e-05,3.227146225981414e-05,-3.6370781799632823e-06
-1.7609087080927566e-05,-3.5261211451143026e-05,-1.3420074537862092e-05,-1.0244957593386061e-05
-2.0038602087879553e-05,1.317833721259376e-05,-4.6700075472472236e-05,1.7668306099949405e-05
-1.5479505236726254e-05,0.00010341967572458088,-5.485477959155105e-05,4.961415834259242e-05
-1.546420025988482e-05,0.0001961122761713341,-6.243973621167243e-05,4.6869736252119765e-05
-2.4574554117862135e-05,0.0002312939614057541,-7.65556760597974e-05,1.5048695786390454e-05
-4.071328294230625e-05,0.00019655225332826376,-8.45414906507358e-05,-1.1663709301501513e-05
-5.875214992556721e-05,0.0001519407524028793,-9.350955951958895e-05,-1.779836202331353e-05
-7.003088830970228e-05,0.00013959905481897295,-0.00010715008102124557,-1.1879931662406307e-05
-7.436642772518098e-05,0.00013993738684803247,-0.00011254756100242957,1.6656804291415028e-06
-7.362380711128935e-05,0.00011674013512674719,-0.00010313167877029628,2.4657285393914208e-05
-6.844312883913517e-05,3.25205473927781e-05,-9.741508984006941e-05,4.5557804696727544e-05
-5.718407192034647e-05,-0.0001274880050914362,-0.00010728576307883486,5.0371534598525614e-05
-3.6788936995435506e-05,-0.00031119908089749515,-0.00010368724906584248,3.787645255215466e-05
-9.581253834767267e-06,-0.0004144398553762585,-6.324802961898968e-05,2.266116462124046e-05
1.0268716323480476e-05,-0.0003937547153327614,-3.4651834539545234e-06,1.7956559531739913e-05
1.8640846974449232e-05,-0.0003231859300285578,3.997802923549898e-05,2.410070737823844e-05
1.892907494038809e-05,-0.0002728498075157404,5.6775283155729994e-05,2.858720654330682e-05
1.582197000971064e-05,-0.00023468566359952092,5.850445450050756e-05,2.218129338871222e-05
2.147615305148065e-05,-0.00015488546341657639,4.8600744776194915e-05,1.3078082702122629e-05
3.334642678964883e-05,4.58620689869349e-07,3.1409224902745336e-05,1.1385481229808647e-05
3.5305296478327364e-05,0.00018675706814974546,1.0360799024056178e-05,1.3552999917010311e-05
3.071176615776494e-05,0.00035351983387954533,-1.0563157957221847e-05,1.989253178180661e-05
2.415033486613538e-05,0.0004639078106265515,-1.982266803679522e-05,2.512799073883798e-05
1.4262947843235452e-05,0.0004997687647119164,-1.749152215779759e-05,2.393747854512185e-05
-1.3365243830776308e-05,0.0004923476371914148,-1.703194539004471e-05,2.2457013983512297e-05
-6.907985516590998e-05,0.00046554766595363617,-1.983282527362462e-05,2.4587003281340003e-05
-0.00014306457887869328,0.00043593416921794415,-2.2663456547888927e-05,2.7117283025290817e-05
-0.00020500997197814286,0.0004012324789073318,-2.4162842237274162e-05,2.5266454031225294e-05
-0.00022279273252934217,0.0003380736452527344,-1.8912676750915125e-05,2.0924069758621044e-05
-0.0001904032687889412,0.00024099313304759562,-4.869782060268335e-06,1.5863759472267702e-05
-0.00013385234342422336,0.000140423871926032,1.5917070413706824e-05,1.191576029668795e-05
-9.26103166420944e-05,7.014498260105029e-05,2.874461824831087e-05,1.2347992196737323e-05
-8.361287473235279e-05,3.2673498935764655e-05,2.4471279175486416e-05,1.9744647943298332e-05
-9.707862773211673e-05,2.3384436644846573e-05,1.0497500625206158e-05,3.0439832698903047e-05
-0.00011269139940850437,3.93804584746249e-05,-1.1856384844577406e-05,3.6370624002302065e-05
-0.00011884430568898097,5.570151915890165e-05,-4.8260699259117246e-05,3.407445183256641e-05
-0.0001153014600276947,2.9539458409999497e-05,-8.062332926783711e-05,2.812028833432123e-05
-0.00010482942161615938,-5.769104973296635e-05,-9.188936382997781e-05,2.730238702497445e-05
-8.860824164003134e-05,-0.00016841653268784285,-8.467664156341925e-05,3.0136152417981066e-05
-7.007960084592924e-05,-0.00023180159041658044,-6.688873691018671e-05,2.7421679988037795e-05
-5.0252623623237014e-05,-0.00023473758483305573,-5.6150318414438516e-05,2.248279270133935e-05
-2.997318733832799e-05,-0.00020183605374768376,-5.669871825375594e-05,2.159879295504652e-05
-1.3234553080110345e-05,-0.0001651774364290759,-6.018727435730398e-05,2.5582348825992085e-05
-1.1720011571014766e-05,-0.00014361485955305398,-6.28043053438887e-05,3.0127699574222788e-05
-2.3930269890115596e-05,-0.0001251367066288367,-5.988936027279124e-05,2.627015237521846e-05
-3.2593190553598106e-05,-0.00010729712812462822,-5.596918344963342e-05,2.0720481188618578e-05
-3.128899697912857e-05,-7.703857409069315e-05,-5.3533836762653664e-05,1.6732232325011864e-05
-2.4553160983487032e-05,-4.901365900877863e-05,-4.74539483548142e-05,1.4296165318228304e-05
-1.8349326637689956e-05,-6.0195008700247854e-05,-3.843842205242254e-05,1.860655720520299e-05
-1.6302930816891603e-05,-0.00010202878183918074,-3.1850646337261423e-05,2.074468466162216e-05
-1.4763599210709799e-05,-0.00011917132360395044,-2.401950041530654e-05,1.8670592908165418e-05
-8.905256436264608e-06,-7.182972331065685e-05,1.528069878986571e-05,1.984559276024811e-05
6.055962330719922e-06,1.1360991720721358e-06,9.574002615408972e-05,2.9465483748936094e-05
1.9677856471389532e-05,6.364860746543854e-05,0.00016642526315990835,3.956443106289953e-05
2.1984820705256425e-05,0.00011165559408254921,0.00018645112868398428,3.967760130763054e-05
2.130109896825161e-05,0.00013115291949361563,0.00015955079288687557,4.178730887360871e-05
2.282202331116423e-05,0.00012047980999341235,0.00010346037743147463,6.293246406130493e-05
1.9926084860344417e-05,8.406701817875728e-05,3.966653093812056e-05,9.548832895234227e-05
1.0635038051987067e-05,2.0925222997902893e-05,-2.4225817469414324e-05,0.00011748444376280531
-3.4081224384863162e-06,-6.926805508555844e-05,-9.177281754091382e-05,0.00011403376265661791
-2.7744690669351257e-05,-0.00015553196135442704,-0.00013575199409388006,7.284730963874608e-05
-6.077639773138799e-05,-0.00018247489060740918,-0.00011331537098158151,-8.471427463518921e-06
-8.340625208802521e-05,-0.00013058427430223674,-5.155108738108538e-05,-8.756210445426404e-05
-7.937929331092164e-05,-2.6543137209955603e-05,-1.430323754902929e-05,-9.57194424699992e-05
-5.281078119878657e-05,8.799198258202523e-05,-9.483012036071159e-06,-2.917350866482593e-05
-9.343602869194001e-06,0.0001239668927155435,-1.994705144170439e-06,4.2950337956426665e-05
3.867175473715179e-05,7.387880486930953e-06,2.121714351233095e-05,7.056583854136989e-05
6.70024601276964e-05,-0.00018512057431507856,4.7138768422883004e-05,5.35679173481185e-05
5.606062040897086e-05,-0.00031553755979985,4.9033129471354187e-05,1.921365583257284e-05
1.7855549231171608e-05,-0.00032272181124426425,-1.6439562386949547e-05,-6.285822564677801e-06
-2.656259857758414e-05,-0.00024142657639458776,-0.00016429992683697492,-8.940412044466939e-06
-6.173472502268851e-05,-0.00012187697575427592,-0.00037111344863660634,2.029337156272959e-05
-7.045234815450385e-05,1.7466738427174278e-05,-0.0004980810917913914,5.892507761018351e-05
-7.869796536397189e-05,0.0001890586136141792,-0.0004717425908893347,7.046677637845278e-05
-0.0001196737794089131,0.00038344645872712135,-0.00034618176869116724,4.767455902765505e-05
-0.00016791430243756622,0.0005232482799328864,-0.00013496646715793759,2.569128992035985e-05
-0.0001905474200611934,0.0005036455113440752,8.449366578133777e-05,2.585917172837071e-05
-0.00019090129353571683,0.0003340830444358289,0.00020724110072478652,2.3889551812317222e-05
-0.00018436642130836844,0.0001802589831640944,0.00020177563419565558,3.3838130093499785e-06
-0.0001767408975865692,9.828982729231939e-05,0.00013173880870454013,-2.1545209165196866e-05
-0.00016222451813519,6.810178456362337e-05,4.552614700514823e-05,-2.7365193091100082e-05
-0.00013608456356450915,0.00013644499995280057,-3.174072480760515e-05,-1.0230402040178888e-05
-0.00011620864825090393,0.0003100579197052866,-9.606097592040896e-05,1.3628815395350102e-05
-0.00011929955508094281,0.0004664791049435735,-0.0001669966586632654,2.687635787879117e-05
-0.00012283213436603546,0.0004757002752739936,-0.0002220370661234483,2.483707976352889e-05
-0.00010435027070343494,0.0003232742310501635,-0.00018983587506227195,9.675294677435886e-06
-7.877912139520049e-05,0.00010125222615897655,-7.460065535269678e-05,-6.3160164245346095e-06
-6.222427327884361e-05,-6.389629561454058e-05,2.4377310182899237e-05,-6.91284458298469e-06
-4.525516487774439e-05,-0.00012392156349960715,6.26352775725536e-05,8.19734123069793e-06
-2.394552211626433e-05,-0.0001018871262203902,6.155159644549713e-05,1.67598500411259e-05
-1.0476002898940351e-05,-2.7005689844372682e-05,5.015157148591243e-05,3.5063924315181794e-06
-8.290519872389268e-06,6.854721868876368e-05,3.7391935620689765e-05,-1.3774340914096683e-05
-1.3167829820304178e-05,0.00011475362407509238,2.893914825108368e-05,-1.0535110959608573e-05
-1.332670399278868e-05,6.839296838734299e-05,2.899357241403777e-05,1.3189507626520935e-05
-3.00850251733209e-06,-2.286755079694558e-05,5.0977992941625416e-05,3.659136564237997e-05
-6.136444881121861e-06,-4.312903547543101e-05,7.317025301745161e-05,4.517824709182605e-05
-3.5039465728914365e-05,3.3823238482000306e-05,6.108610250521451e-05,4.6093566197669134e-05
-7.410201214952394e-05,0.00010225883306702599,1.557760697323829e-05,4.215964872855693e-05
-0.00011919380631297827,0.00010534537432249635,-3.372788705746643e-05,2.734448753471952e-05
-0.00015840436390135437,7.026902312645689e-05,-6.078458682168275e-05,7.987491699168459e-06
-0.00017552150529809296,3.074930646107532e-05,-6.015441249473952e-05,-1.5166067896643654e-05
-0.0001722128363326192,3.0746512038604124e-06,-5.212457472225651e-05,-2.7822739866678603e-05
-0.00015631690621376038,-1.1879270459758118e-05,-4.616657679434866e-05,-1.0503332305233926e-05
-0.00012057255662512034,-2.4626237063785084e-05,-3.7157602491788566e-05,1.999282176257111e-05
-7.653155626030639e-05,-5.7157794799422845e-05,-2.286445305799134e-05,3.69924382539466e-05
-5.4906900913920254e-05,-6.720338569721207e-05,1.4376931176229846e-05,3.7320933188311756e-05
-5.2939558372600004e-05,-3.640523937065154e-05,0.00010935560567304492,2.889120878535323e-05
-6.140029290691018e-05,-1.1796585567935836e-05,0.00020110934565309435,2.7787313229055144e-05
-6.637301703449339e-05,-2.5924631700036116e-05,0.00021077766723465174,5.271876943879761e-05
-5.7637091231299564e-05,-6.461013981606811e-05,0.00016258779214695096,8.684890053700656e-05
-3.275962080806494e-05,-9.523922926746309e-05,0.0001065562100848183,9.564067295286804e-05
-5.918099304835778e-06,-0.00010997563367709517,3.862484300043434e-05,7.37498703529127e-05
1.0280985407007392e-05,-0.00010949393617920578,-6.651208968833089e-05,4.110505688004196e-05
1.8523938706493936e-05,-0.00012156138109276071,-0.00019403932674322277,1.1169094250362832e-05
2.8848624424426816e-05,-0.00016533536836504936,-0.0002880932588595897,-3.7863640045543434e-06
4.139622615184635e-05,-0.0002102981525240466,-0.0002910311450250447,1.1997324691037647e-05
5.007331128581427e-05,-0.0002130001230398193,-0.00021779275266453624,4.953984898747876e-05
5.141855581314303e-05,-0.00017944791761692613,-0.00013094359019305557,7.652763451915234e-05
3.761999687412754e-05,-0.00012977438746020198,-7.786566857248545e-05,7.736182305961847e-05
4.5562401282950304e-06,-6.17127661826089e-05,-5.92711876379326e-05,6.36725890217349e-05
-3.247169661335647e-05,4.542091119219549e-05,-5.550771311391145e-05,4.805158459930681e-05
-5.033814159105532e-05,0.00018175561854150146,-4.883668225375004e-05,2.9121856641722843e-05
-6.67192434775643e-05,0.0002892089542001486,-3.689185541588813e-05,-1.096268420042179e-06
-9.79150936473161e-05,0.0003166196111124009,-6.794963155698497e-06,-3.746234142454341e-05
-0.00012088272342225537,0.0002896903606597334,3.7951729609631e-05,-6.016514089424163e-05
-0.00010135273623745888,0.00023996210074983537,7.404364441754296e-05,-4.749380241264589e-05
-5.1446430006762967e-05,0.00018065053154714406,6.166702223708853e-05,6.236636522771732e-07
-1.9166185666108504e-05,0.00016919297922868282,7.52945379645098e-06,4.551492747850716e-05
-1.982796675292775e-05,0.00020411951118148863,-3.7208777939667925e-05,5.625482299365103e-05
-2.6162530048168264e-05,0.00022265221923589706,-6.130869587650523e-05,4.389788591652177e-05
-2.132207009708509e-05,0.0001944754330907017,-8.184627222362906e-05,2.9196040486567654e-05
-1.0394054697826505e-05,0.00013678838149644434,-9.267260611522943e-05,2.648076588229742e-05
-7.641368938493542e-06,9.21175887924619e-05,-7.140111847547814e-05,3.1547813705401495e-05
-1.8796314179780893e-05,8.407418499700725e-05,-3.8330334064085037e-05,3.505142012727447e-05
-3.4639040677575395e-05,9.28852750803344e-05,-2.0747811504406855e-05,3.023047247552313e-05
-4.671387796406634e-05,6.614890298806131e-05,-2.0099008906981908e-05,1.6963216694421135e-05
-5.2145296649541706e-05,-2.9438737328746356e-05,-2.2838001314084977e-05,5.0917710723297205e-06
-4.8507128667552024e-05,-0.00017443281831219792,-2.0978559405193664e-05,5.532929776563833e-07
-3.7565547245321795e-05,-0.00029841685318388045,-1.1369556887075305e-05,5.859202701685717e-06
-2.5641564207035117e-05,-0.0003259983495809138,-6.800712526455754e-07,1.4237775758374482e-05
-1.7167685655294918e-05,-0.00025730879860930145,-6.397430638571677e-07,1.750852243276313e-05
-1.0579782610875554e-05,-0.00018101809837389737,-1.0711411960073747e-05,1.6712092474335805e-05
-6.1263644965947606e-06,-0.00016677475650794804,-2.0357569155748934e-05,1.7069465684471652e-05
-4.740896201838041e-06,-0.00018535992421675473,-2.5225795980077237e-05,1.726248228806071e-05
7.664138479412941e-07,-0.0001820700999815017,-2.555206447141245e-05,1.731101656332612e-05
1.0667464266589377e-05,-0.0001464043016312644,-2.0145398593740538e-05,1.7865901099867187e-05
1.932786290126387e-05,-9.220199717674404e-05,-1.3958412637293804e-05,2.0933115592924878e-05
2.592292548797559e-05,-3.6141209420748055e-05,-1.0568876859906595e-05,2.694207250897307e-05
3.473499964457005e-05,1.2465333384170663e-05,-3.7246918509481475e-06,3.4835069527616724e-05
3.60348894901108e-05,5.3258885600371286e-05,9.113840860663913e-06,4.357551733846776e-05
1.925022661453113e-05,0.0001075519758160226,2.0678249711636454e-05,4.778657967108302e-05
-1.2167824934294913e-05,0.000182767616934143,2.5600580556783825e-05,4.6319175453390926e-05
-4.5158114517107606e-05,0.00021777531947009265,2.257535197713878e-05,4.2841696995310485e-05
-5.832510578329675e-05,0.00019431093824096024,6.584618859051261e-06,4.134841583436355e-05
-5.222372419666499e-05,0.00018336701032239944,-2.1999549062456936e-05,4.235630331095308e-05
-4.723830716102384e-05,0.0001968791475519538,-4.1170857002725825e-05,3.9450504118576646e-05
-6.181364733492956e-05,0.00019922718638554215,-3.699205626617186e-05,3.066035787924193e-05
-9.916336421156302e-05,0.00020274166308809072,-2.605089684948325e-05,2.1136309442226775e-05
-0.00012507918290793896,0.0001858555624494329,-2.3399134079227224e-05,1.1799103049270343e-05
-0.00011824522516690195,0.00012298552610445768,-2.4832994313328527e-05,5.40583369001979e-06
-0.00010208443563897163,3.0057342883083038e-05,-3.1655617931392044e-05,7.667984391446225e-06
-9.533044067211449e-05,-5.6972676247823983e-05,-4.4357537262840196e-05,2.0700405002571642e-05
-9.224285167874768e-05,-0.00011574434029171243,-5.8527170040179044e-05,3.251063753850758e-05
-9.100005991058424e-05,-0.00015054883260745555,-6.596132880076766e-05,3.38052304869052e-05
-8.872769103618339e-05,-0.00016564014367759228,-5.616037014988251e-05,2.982862133649178e-05
-7.881490455474705e-05,-0.0001556732750032097,-3.1278021197067574e-05,2.6601808713166974e-05
-6.20083519606851e-05,-0.0001158752929768525,-1.1525838999659754e-05,2.5970502974814735e-05
-4.737310518976301e-05,-5.452863479149528e-05,-1.2295778105908539e-05,3.0164990675984882e-05
-4.3412546801846474e-05,2.3125281586544588e-05,-2.323967419215478e-05,4.178607923677191e-05
-4.954993346473202e-05,0.00010154456685995683,-2.9029361030552536e-05,5.303254147293046e-05
-5.365654214983806e-05,0.00015011400682851672,-2.8369528081384487e-05,5.080876871943474e-05
-5.02108596265316e-05,0.00015303843247238547,-2.7163765480509028e-05,3.483350155875087e-05
-4.806165088666603e-05,0.00013434905849862844,-2.901206062233541e-05,1.839899596234318e-05
-5.25372706761118e-05,0.00011399308277759701,-3.592493521864526e-05,1.3623262930195779e-05
-5.9562840760918334e-05,9.690618026070297e-05,-4.8757043259683996e-05,2.0312092601670884e-05
-5.9768375649582595e-05,8.163224265445024e-05,-5.890728789381683e-05,2.8163669412606396e-05
-5.1933093345724046e-05,6.843735900474712e-05,-5.130312274559401e-05,3.343795469845645e-05
-4.868036921834573e-05,6.445830513257533e-05,-3.482096508378163e-05,3.7858859286643565e-05
-5.459769818116911e-05,8.285807416541502e-05,-2.8453103368519805e-05,4.173701017862186e-05
-5.975174281047657e-05,0.0001261217548744753,-3.1795843824511394e-05,3.727680814336054e-05
-5.4846466809976846e-05,0.0001506294502178207,-2.839319313352462e-05,3.26230438076891e-05
-4.786169665749185e-05,0.0001282809244003147,-2.2419924789573997e-05,3.085553180426359e-05
-4.9186543037649244e-05,8.414193871431053e-05,-2.071981543849688e-05,2.4431548808934167e-05
-4.7114863264141604e-05,5.3984735131962225e-05,-2.163287535950076e-05,1.8747723515843973e-05
-4.117210482945666e-05,5.6019664043560624e-05,-2.5871808247757144e-05,1.6928614058997482e-05
-3.764065695577301e-05,5.4957086831564084e-05,-2.894026692956686e-05,1.9607281501521356e-05
-4.2683921492425725e-05,1.8685812392504886e-05,-2.9543771233875304e-05,1.9814817278529517e-05
-5.633825276163407e-05,-2.5891127734212205e-05,-2.811489139276091e-05,1.9456390873529017e-05
-6.796966044930741e-05,-3.325397483422421e-05,-2.404739279882051e-05,2.0233195755281486e-05
-6.823467265348881e-05,-5.678818979504285e-06,-1.9528541088220663e-05,2.0871784727205522e-05
-5.836792479385622e-05,2.122684963978827e-05,-1.4575584827980492e-05,1.9736673493753187e-05
-4.872414865531027e-05,2.5000505047501065e-05,-6.198724349815166e-06,2.0097369997529313e-05
-4.557061038212851e-05,-1.2225892760397983e-06,4.779831215273589e-06,2.1177786038606428e-05
-4.180936957709491e-05,-4.714595343102701e-05,1.5879597413004376e-05,2.040991785179358e-05
-3.1489482353208587e-05,-8.730812260182574e-05,2.0906383724650368e-05,1.917725967359729e-05
-1.548715772514697e-05,-0.00011156428081449121,1.5312085452023894e-05,1.909396996779833e-05
3.4241966204717755e-06,-0.00014243245823308825,-4.2908718000944646e-07,2.1122947146068327e-05
2.0130761186010204e-05,-0.00019676832016557455,-2.4161883629858494e-05,2.228161974926479e-05
2.8345104510663077e-05,-0.0002506394812371582,-5.05254756717477e-05,2.169200888602063e-05
2.6898474970948882e-05,-0.0002498573448974639,-6.0085742006776854e-05,1.9537359548849054e-05
1.835373586800415e-05,-0.00015698367496952415,-3.682267197291367e-05,1.823167440306861e-05
6.763079909433145e-06,-8.653273653180804e-07,4.4366252041072585e-06,1.8173524949816056e-05
7.443655931638204e-07,0.00015128309314604849,3.251057933084667e-05,2.7398797101341188e-05
-9.644290912547149e-06,0.0002952274226117879,4.2958894482580945e-05,4.910976713290438e-05
-3.294045018265024e-05,0.00044546101707965136,4.0424958569929004e-05,6.51746304356493e-05
-6.561911141034216e-05,0.0005346491234377027,1.5520479792030528e-05,5.82174034207128e-05
-9.933819819707423e-05,0.0005012153997085989,-2.352024966967292e-05,2.2740599888493307e-05
-0.00011370264110155404,0.00040456224814988673,-2.2440786779043265e-05,-2.5258925234084018e-05
-0.00011397746129659936,0.00030890406924299896,-4.502414412854705e-06,-3.8763333577662706e-05
-0.0001143253393820487,0.00019950282876379788,-2.854981903510634e-05,-9.309803203905176e-07
-0.00010708539775805548,4.3328036554157734e-05,-5.380777292884886e-05,4.464473022380844e-05
-0.00010674131044652313,-0.00012387750030029565,-5.948245234321803e-05,6.505608325824142e-05
-0.00012678642815444618,-0.000224691626499407,-4.537024142337032e-05,5.977380715194158e-05
-0.0001458465267205611,-0.00024998371372930706,-1.3603692423203029e-05,3.144863512716256e-05
-0.00014177022967487574,-0.00021979669691063464,6.03770422458183e-06,6.969578976168123e-07
-0.00012432958465069532,-0.0001500291982665658,-1.694058664725162e-05,-1.2255551155249123e-05
-0.00011332932626828551,-5.864219201612286e-05,-7.856448064558208e-05,-4.305104084778577e-06
-0.00011635833652690053,3.9424336137017235e-05,-0.00013787757779937238,4.347639332991093e-06
-0.00011734616418834776,0.00010880288027692586,-0.00015576726582366973,2.927208470282494e-06
-0.00010212569759460166,0.000136612041387707,-0.00012730318121612072,3.3672000654405565e-07
-8.231710671680048e-05,0.00014684174675494432,-8.107531175483018e-05,2.5606561848690035e-06
-7.673136133234948e-05,0.00015357199299614877,-4.843757415073924e-05,5.984597919450607e-06
-8.801094372756779e-05,0.0001579943927936256,-3.752611155505292e-05,7.601468041684711e-06
-0.00010565089178271592,0.00016350229270756245,-3.465552072157152e-05,7.645946425327566e-06
-0.00011558039841474965,0.0001656209642533213,-3.1020423193695024e-05,5.144026090420084e-06
-0.00011250480747548863,0.00016467632667627186,-3.172761353198439e-05,5.175915703148348e-06
-0.00010375447163823992,0.00017117524112109095,-4.229976184433326e-05,1.0376130376243964e-05
-9.192097786581144e-05,0.00016484696243423969,-4.661640923586674e-05,1.7316024241154082e-05
-8.043881825869903e-05,0.00011619709403021261,-3.9515063690487295e-05,1.980263550649397e-05
-6.851150828879327e-05,2.98071900033392e-05,-3.4483702620491385e-05,2.4305563783855177e-05
-4.802896364708431e-05,-7.434596045641229e-05,-3.9767684938851744e-05,3.248262146371417e-05
-2.5116440156125464e-05,-0.0001613692584214732,-4.580347012961283e-05,3.583437137422152e-05
-1.3065466191619635e-05,-0.00018993631238117814,-4.428850661497563e-05,3.5055789339821786e-05
-1.1011869901267346e-05,-0.00014661902969237417,-2.216841312474571e-05,3.0243587389122695e-05
-1.976777821255382e-05,-9.205986134475097e-05,1.1697472473315429e-05,2.0587645849445835e-05
-2.781864532153122e-05,-9.419656998943537e-05,1.6439709725091234e-05,2.452875742164906e-05
-3.268144064350054e-05,-0.00013149574806448072,-1.1075889233325142e-05,3.861249570036307e-05
-3.728763113031164e-05,-0.00014878131332807243,-4.626697045750916e-05,4.238382462062873e-05
-3.414880484342575e-05,-0.00011373799497960135,-6.914305413374677e-05,3.426373586989939e-05
-2.5727895263116807e-05,-3.779509279411286e-05,-6.191553984535858e-05,2.49054155574413e-05
-2.0172994481981732e-05,5.2185925596859306e-05,-3.0552921089110896e-05,2.0844201571890153e-05
-1.9808918295893818e-05,0.00011227613140363246,-9.398544534633402e-06,2.01795955945272e-05
-1.4194766663422342e-05,0.0001303588942391798,-1.0519373972783796e-05,1.989459815376904e-05
-3.5900950479117455e-07,0.0001295608381042257,-1.8821845515049063e-05,2.5646486392361112e-05
7.1682120506011415e-06,0.00013429656974039972,-2.1283925889292732e-05,3.4994081943295896e-05
-1.344235215583467e-06,0.00013708305777981877,-1.6655058061587624e-05,3.8273530662991107e-05
-1.5601182894897647e-05,0.00010197101073572412,-3.2947018553386442e-06,3.3588257792871445e-05
-2.0586523532983847e-05,2.480993680364918e-05,1.4804916645516641e-05,2.7619955289992504e-05
-1.2181431884528138e-05,-5.516420060303062e-05,3.097636727034114e-05,2.616817073430866e-05
-6.268406878007227e-07,-8.692028495715931e-05,4.248723416822031e-05,2.444758138153702e-05
-4.079267455381341e-06,-5.8898098359350115e-05,4.269559940439649e-05,1.663382863625884e-05
-2.7801499527413398e-05,-1.1672465916490182e-05,3.329289029352367e-05,5.379810772865312e-06
-5.530955604626797e-05,7.324588750634575e-06,1.984081245609559e-05,4.9358877731719986e-06
-5.838830111315474e-05,-4.994207301933784e-06,-1.0307519914931618e-05,2.296401908097323e-05
-3.280768942204304e-05,-3.26684421452228e-05,-6.528093217639253e-05,4.9231355660595e-05
-1.1190867553523276e-05,-4.5615208364324644e-05,-0.00010473254224052653,6.18190533714369e-05
-1.8515374904382043e-05,-2.783598938549403e-05,-8.40701031847857e-05,4.8278863687301055e-05
-3.939587259083055e-05,-2.2460704713012092e-05,-1.4747559362149332e-05,1.2575140317494515e-05
-4.532665479928255e-05,-6.649261922575533e-05,4.28936182288453e-05,-1.972049540199805e-05
-3.2832202123245224e-05,-9.918702562572435e-05,4.646393790608272e-05,-1.6756193872424774e-05
-1.6645686628180556e-05,-6.904680049046874e-05,1.3485407180269249e-05,1.796888500393834e-05
-1.2265277291589882e-05,-2.0121604393352754e-05,-1.958768734766636e-05,4.902042564935982e-05
-1.2149032045272179e-05,2.1521098460652865e-05,-4.908769187750295e-05,5.418125510914251e-05
-1.503146268078126e-05,6.063882392481901e-05,-7.178380474215373e-05,4.032490687677637e-05
-2.079959995171521e-05,7.523476233473048e-05,-6.565100193256512e-05,2.5913896024576388e-05
-1.5719195289420895e-05,9.172377758659422e-05,-4.238003748469055e-05,1.9295397578389384e-05
-9.60795659921132e-06,0.0001358015724690631,-2.893432065320667e-05,2.457896880514454e-05
-2.2087388060754165e-05,0.00017739665054250509,-2.8880249374196865e-05,3.29293507093098e-05
-5.074853834230453e-05,0.00018938096764031798,-3.342582567711361e-05,3.6032895877724513e-05
-7.958884089021012e-05,0.00018098489090334624,-3.569584441720508e-05,3.246344567742199e-05
-0.00010138364450540394,0.00015014107339084148,-3.4623815736267716e-05,2.291821328981314e-05
-0.00011406068369979039,8.448289736406878e-05,-3.3538774005137384e-05,1.1500174878165126e-05
-0.00012053288810420781,3.363234645803459e-05,-3.566955274436623e-05,1.6566231124670594e-06
-0.00011692931002471596,5.334355228114873e-05,-3.688685319502838e-05,-8.067792123256368e-07
-0.00010114527685800567,0.00010903170914389193,-3.214826210751198e-05,5.139507720741676e-06
-7.948398706503212e-05,0.00013015069998800755,-2.4753509933361784e-05,1.6727812180761248e-05
-6.319440581137314e-05,0.0001082721064449288,-1.9850827811751515e-05,2.3679212972638197e-05
-6.287385622272268e-05,7.262676808750257e-05,-1.8682410882320255e-05,2.4076936824712902e-05
-7.524300599470735e-05,4.9481666792416945e-05,-1.8046343029709533e-05,2.3016393242869526e-05
-8.078884275164455e-05,4.364633423392661e-05,-1.4231366549211089e-05,2.3369415430352092e-05
-7.207682938314974e-05,4.276436447980814e-05,-8.56851056596497e-06,2.2785397959523834e-05
-6.195529567776248e-05,3.4690663596848026e-05,-2.914116976171499e-06,2.0850999135291204e-05
-5.7954493968281895e-05,1.3760953152086586e-05,2.0531128939182963e-06,1.977379542950075e-05
-6.209028651937842e-05,-9.133786988968495e-06,3.7285294638422783e-06,2.2243337298277766e-05
-7.361503958236426e-05,1.9709443222382106e-05,3.852770987577969e-06,2.376835618633777e-05
-8.234670531237498e-05,9.209131530951709e-05,5.396062078943942e-06,2.0778992620762438e-05
-7.65450531616807e-05,0.00013867761299479753,4.410993824421894e-06,1.8036926121567376e-05
-5.744275767938234e-05,0.00012592524581123143,-4.9079108066507615e-06,1.64342036441667e-05
-3.6229008401278406e-05,5.2065966883674264e-05,-2.193899308622349e-05,1.9779512513196096e-05
-2.0293118723202497e-05,-4.148601510678418e-05,-3.523561099427752e-05,2.7568075893213972e-05
-5.911849711992545e-06,-9.581941412761807e-05,-3.989829929196276e-05,3.5740620660362765e-05
-1.3006623476030654e-06,-6.758369272574782e-05,-4.3472027755342424e-05,4.349934170022607e-05
-1.0806288628373295e-05,2.426393075438682e-05,-3.5831562854582444e-05,4.8252881242660806e-05
-3.2741849281592295e-05,8.960493869381025e-05,-2.05588494281983e-05,4.5853452320443466e-05
-6.547808879986405e-05,7.322568853851408e-05,-2.125303763023112e-05,3.489412119961344e-05
-8.839437214192003e-05,1.4882381947245449e-05,-3.6379544326337054e-05,2.0851937733823434e-05
-8.278413588413969e-05,-1.7308599126408808e-05,-4.847543459618464e-05,1.4273277884058189e-05
-6.567213131347671e-05,1.700628786238667e-06,-5.126429459778592e-05,1.4394774552783929e-05
-6.59470897517167e-05,4.124724000575952e-05,-5.279851393424906e-05,1.3218208550824784e-05
-7.824900967534631e-05,5.984581002849154e-05,-5.3071038564667106e-05,8.98825965123251e-06
-7.999649096745998e-05,5.690204125130549e-05,-4.87601246277336e-05,7.57199586587376e-06
-6.643898086622357e-05,5.209973460296169e-05,-4.1931554733309895e-05,1.112169320549583e-05
-4.441480996320024e-05,4.212486601318233e-05,-3.607635881053284e-05,1.5434668966918252e-05
-2.4022689103730954e-05,1.4546857528330293e-05,-2.9593778890557587e-05,2.0215056792949326e-05
-1.3326683074410539e-05,-1.3801188288198318e-05,-1.7899476006277837e-05,2.7487290935823694e-05
-1.3690180821868125e-05,-2.7922644221689552e-05,-2.8364088393573184e-06,3.4644592233235016e-05
-2.465780016791541e-05,-4.312104283599183e-05,6.545762516907416e-06,3.649574500741437e-05
-3.493133408483118e-05,-7.511861622333527e-05,5.544113264477346e-06,3.436795304878615e-05
-3.318985545774922e-05,-0.00011746868403861299,-3.484778972051572e-06,3.4523054637247697e-05
-2.639006925164722e-05,-0.00015004917804617435,-1.1123071089969017e-05,3.9046237361617386e-05
-2.3589689590153284e-05,-0.00015366550360340625,-6.445348844863474e-06,4.626555892173201e-05
-2.0803610823350027e-05,-0.00011457653454272076,5.129762485012179e-06,5.0402755732648075e-05
-9.329145541414618e-06,-6.376279634423554e-05,1.4605857359129004e-05,4.7011450078571215e-05
6.446981387853157e-06,-5.505483932211064e-05,2.6767842427943833e-05,4.16806542489212e-05
1.995704042201396e-05,-8.717059972696006e-05,3.429288335610181e-05,2.7179785320186056e-05
3.0732349841855466e-05,-0.0001242643193108961,4.83243911730824e-06,4.67584868601989e-06
3.4803309972630814e-05,-0.00013044060324318707,-4.775257912115194e-05,8.118759069475345e-06
3.534916686476208e-05,-7.877706957515329e-05,-8.85167537489906e-05,4.739774522022344e-05
2.685324398044031e-05,1.6795765986898914e-05,-0.00010366132482886314,8.7663036538288e-05
8.208084182115272e-06,0.0001029186460073106,-9.136602602666244e-05,9.553229028824717e-05
-2.2230682588997297e-05,0.00015470950165763497,-7.376778376055881e-05,7.290900248335674e-05
-6.305577699095011e-05,0.00020264918566681445,-5.6950622820295393e-05,3.993753853137605e-05
-9.509922529105097e-05,0.0002688133390620351,-3.4918266464956105e-05,5.651026640407508e-06
-0.00011424742842791602,0.0003217612102162093,-1.8213610019301996e-05,-1.8233571609016508e-05
-0.00012398086255416274,0.0003530285321176052,-1.8409211406833492e-05,-1.7226127965841442e-05
-0.00012244163372088224,0.00039439465035684407,-2.6659070499590598e-05,5.082195912109455e-06
-0.00011730267578968778,0.0004041119827888906,-3.398125045350753e-05,2.8056874725734815e-05
-0.0001229071494890377,0.00030698158661834896,-3.8863308873260394e-05,2.9180440833442844e-05
-0.00013361035962589085,0.00012552682892419398,-4.5393648179015145e-05,4.636342964658979e-06
-0.00012724296539090574,-3.073464904446155e-05,-5.138478081789799e-05,-2.190019040426705e-05
-0.0001013873697957024,-9.815201337914914e-05,-4.650166374631226e-05,-2.7638172468869016e-05
-7.928186096251011e-05,-0.00010387058136984706,-3.198215563315898e-05,-1.294539833907038e-05
-6.935659621376544e-05,-9.469816723139957e-05,-1.7712623957777396e-05,6.448285148508148e-06
-5.785358735010959e-05,-8.3385210018605e-05,-8.896224244381301e-06,1.6520700228284113e-05
-4.0227976569440216e-05,-6.357149686664343e-05,-3.6925016502209473e-06,1.6885394870769233e-05
-2.3804679585737176e-05,-3.985170405940153e-05,1.945593567143078e-06,1.4763399121875409e-05
-9.750892786541954e-06,-3.416389517951757e-05,8.377060112252366e-06,1.6468129615532234e-05
5.83069731874275e-06,-6.384224252542481e-05,9.714424777484965e-06,2.3908211005618796e-05
1.9184304619557224e-05,-0.00012534286361187696,8.412641363975126e-06,3.293842019047588e-05
2.260446490254253e-05,-0.0001907769765239209,9.55824020820728e-07,3.3119697036454454e-05
1.3658235729963053e-05,-0.00022738511324860156,-2.4214259610744193e-05,2.367199158470612e-05
-6.873835332044109e-07,-0.0002328229311387986,-5.297910320223309e-05,1.4922753507562447e-05
-1.3034226867603138e-05,-0.00020835536997765303,-5.890723332413472e-05,1.8449974959366955e-05
-2.2861717297928408e-05,-0.00013712707732338458,-4.986266867490485e-05,2.7129855880048126e-05
-3.2994954381138086e-05,-1.4438679500017315e-05,-3.4009124647127464e-05,2.893084274546709e-05
-5.672293991665356e-05,0.00010846487566595897,-1.3089796084386762e-05,2.2425585484597832e-05
-9.342250996269286e-05,0.00020389306882862002,9.233313903678209e-06,2.6087429887411417e-06
-0.00011898337106686085,0.00030083319870755076,3.162572465953417e-05,-1.0770256267278455e-05
-0.00012425458407960832,0.00035210480564273894,3.2451200240757316e-05,-3.092219174050115e-07
-0.00012856720422860235,0.00028800632571801543,4.3973809624731075e-06,1.8631297280080616e-05
-0.00014198281860444695,0.00014111935161054134,-3.1858951842878014e-05,2.937875979114324e-05
