-4.639546023099683e-05,4.267045733286068e-05,-2.8917338568135165e-05,2.4837067030603066e-05
-4.350268136477098e-05,4.6670509618707e-05,-2.8551001378218643e-05,2.796036824292969e-05
-4.13122252211906e-05,4.089727735845372e-05,-2.6407802579342388e-05,2.90836687781848e-05
-4.343343243817799e-05,3.296104841865599e-05,-2.531547397666145e-05,2.8984484742977656e-05
-4.8793710448080674e-05,2.9985098080942407e-05,-2.865129863494076e-05,2.7093919925391674e-05
-5.822222010465339e-05,3.7320394767448306e-05,-3.134441067231819e-05,2.6149029508815147e-05
-6.759870302630588e-05,4.5542918087448925e-05,-3.0135781344142742e-05,2.5377372367074713e-05
-6.862959708087146e-05,4.711734436568804e-05,-2.5183191610267386e-05,2.3201388103188947e-05
-6.194256275193766e-05,4.291458390071057e-05,-2.1385092622949742e-05,2.1678528355550952e-05
-5.591401713900268e-05,3.354284126544371e-05,-2.1647061657859012e-05,2.2633708795183338e-05
-5.366498953662813e-05,2.1610498151858337e-05,-2.4167133233277127e-05,2.540192326705437e-05
-5.200758096179925e-05,1.4298402675194666e-05,-2.5716284653753974e-05,2.5470661057624966e-05
-5.003069236408919e-05,1.4892055332893506e-05,-2.534610939619597e-05,2.2898275346960872e-05
-4.786149656865746e-05,2.109238994307816e-05,-2.4263415980385616e-05,2.115477946063038e-05
-4.574240301735699e-05,2.8118734917370602e-05,-2.4044518795562908e-05,2.1410947738331743e-05
-4.4656255340669304e-05,2.990997745655477e-05,-2.495388253009878e-05,2.285210939589888e-05
-4.219561378704384e-05,2.878962732211221e-05,-2.5650719180703163e-05,2.4184908397728577e-05
-3.840078352368437e-05,2.9902257665526122e-05,-2.7530173611012287e-05,2.2984571842243895e-05
-3.719426240422763e-05,3.280415330664255e-05,-3.053603722946718e-05,2.0373898223624565e-05
-3.954386556870304e-05,3.414519233047031e-05,-3.267452120780945e-05,1.9966251784353517e-05
-4.144917329540476e-05,3.608366387197748e-05,-3.2050025765784085e-05,2.3310823962674476e-05
-4.184302451903932e-05,3.6635177821153775e-05,-2.7623280402622186e-05,2.859833875845652e-05
-4.272226942703128e-05,3.407879557926208e-05,-2.429465348541271e-05,2.980577846756205e-05
-3.9924721932038665e-05,3.3441589039284736e-05,-2.3762624550727196e-05,2.725212470977567e-05
-3.691083475132473e-05,3.567101521184668e-05,-2.384215076745022e-05,2.582208253443241e-05
-3.652519080787897e-05,3.2114596251631156e-05,-2.0397843400132842e-05,2.6026988052763045e-05
-3.540514808264561e-05,2.5464110876782797e-05,-1.7441137970308773e-05,2.382284583291039e-05
-3.2239098800346255e-05,2.6079964300151914e-05,-2.12345094041666e-05,2.0640454749809578e-05
-3.3812444598879665e-05,2.8551965442602523e-05,-2.2818403522251174e-05,1.9784269170486368e-05
-3.9904858567751944e-05,2.871560718631372e-05,-2.1974874471197836e-05,1.8786602595355362e-05
-4.4110511225881055e-05,2.9736502256128006e-05,-2.2031616026652046e-05,1.9309565686853603e-05
-4.816836735699326e-05,2.8669081075349823e-05,-2.270049662911333e-05,2.1543712136917748e-05
-5.45275179320015e-05,2.7338448489899747e-05,-2.285000118718017e-05,2.1764833945780993e-05
-5.8066838391823694e-05,2.502352617739234e-05,-2.3688880901318043e-05,2.141438380931504e-05
-5.482571214088239e-05,2.1436304450617172e-05,-2.4719574867049232e-05,2.1079327780171297e-05
-5.333900480763987e-05,2.1337416910682805e-05,-2.7793479603133164e-05,2.1199739421717823e-05
-5.763369335909374e-05,2.4130687961587682e-05,-3.265949271735735e-05,2.0349276383058168e-05
-6.45707332296297e-05,2.705894257815089e-05,-3.5400913475314155e-05,2.068478352157399e-05
-6.799915718147531e-05,2.712490277190227e-05,-3.7079822504892945e-05,2.2574942704522982e-05
-6.687504355795681e-05,2.6549711037660018e-05,-3.746502261492424e-05,2.3460990632884204e-05
-6.513798143714666e-05,2.887769187509548e-05,-3.475832272670232e-05,2.2496211386169307e-05
-6.468404171755537e-05,3.409046621527523e-05,-2.816262531268876e-05,1.863461329776328e-05
-6.39171339571476e-05,3.859547359752469e-05,-2.5336816179333255e-05,1.5230183635139838e-05
-6.328709423542023e-05,4.243908915668726e-05,-2.6670088118407875e-05,1.7099260730901733e-05
-6.45551408524625e-05,4.764387267641723e-05,-2.810231308103539e-05,2.0609166313079186e-05
-6.7977758590132e-05,5.374591637519188e-05,-2.7268664780422114e-05,1.8048083802568726e-05
-6.871548248454928e-05,5.6514531024731696e-05,-2.7541003873921e-05,1.2825455087295268e-05
-6.205147656146437e-05,5.608616993413307e-05,-2.9802216886309907e-05,1.2039678040309809e-05
-5.2647257689386606e-05,5.282775600790046e-05,-3.3309293939964846e-05,1.6132677046698518e-05
-4.633655771613121e-05,4.5018201490165666e-05,-3.460293373791501e-05,1.9194070773664862e-05
-4.436224480741657e-05,3.532730625011027e-05,-3.0096980481175706e-05,2.0083607523702085e-05
-4.5744251110590994e-05,3.027577076863963e-05,-2.419260454189498e-05,2.2338364942697808e-05
-4.9963553465204313e-05,2.861942266463302e-05,-2.0428333300515078e-05,2.615444827824831e-05
-5.256387885310687e-05,2.5347808332298882e-05,-1.8341801478527486e-05,2.5894225473166443e-05
-5.7129025663016364e-05,2.1581257897196338e-05,-1.5356450603576377e-05,2.3470271116821095e-05
-5.743133806390688e-05,1.968191281775944e-05,-1.3239513464213815e-05,2.4899887648643926e-05
-4.634348806575872e-05,2.0217912606312893e-05,-1.3035834854235873e-05,2.509041405573953e-05
-3.252281021559611e-05,1.648977013246622e-05,-1.3910426787333563e-05,2.261059489683248e-05
-3.215942342649214e-05,1.506224725744687e-05,-1.683498157944996e-05,1.9133010937366635e-05
-4.601628097589128e-05,1.9746747057070024e-05,-2.180756018788088e-05,1.7632275557843968e-05
-5.560199497267604e-05,2.2849644665257074e-05,-2.600445986900013e-05,1.932687337102834e-05
-5.975751992082223e-05,2.247243537567556e-05,-2.7737763957702555e-05,2.126136314473115e-05
-5.841954407515004e-05,2.3716824216535315e-05,-2.5977607947424985e-05,2.3315773432841524e-05
-5.227025394560769e-05,3.1171919545158744e-05,-2.246995245513972e-05,2.531912650738377e-05
-4.7508008719887584e-05,4.025594535050914e-05,-2.1463636585394852e-05,2.863139525288716e-05
-4.559251829050481e-05,4.6633664169348776e-05,-2.5480612748651765e-05,3.1396706617670134e-05
-4.5681117626372725e-05,4.800823808182031e-05,-2.934489748440683e-05,3.131695120828226e-05
-4.416775482241064e-05,4.631062984117307e-05,-3.095295687671751e-05,2.7766691346187145e-05
-3.7181409425102174e-05,4.3599680793704465e-05,-3.216209734091535e-05,2.383419814577792e-05
-2.6775005608214997e-05,3.848890264634974e-05,-3.166358874295838e-05,2.1594454665319063e-05
-2.1640700651914813e-05,3.177008329657838e-05,-2.9460508812917396e-05,2.101373320329003e-05
-2.5943309083231725e-05,2.9507104045478627e-05,-2.831429083016701e-05,2.031909752986394e-05
-3.635912071331404e-05,3.1980376661522314e-05,-2.9888384233345278e-05,1.9170094674336724e-05
-4.602911212714389e-05,3.264789120294154e-05,-3.164211375406012e-05,2.030431824096013e-05
-4.966150299878791e-05,2.8398068025126122e-05,-3.140734042972326e-05,2.4429989935015328e-05
-4.9394617235520855e-05,2.1005242160754278e-05,-3.136933810310438e-05,2.8140189897385426e-05
-5.0569913582876325e-05,1.4836570699117146e-05,-3.0289525966509245e-05,2.9215625545475632e-05
-5.537562174140476e-05,1.71872725331923e-05,-2.4437242245767266e-05,2.8130278224125504e-05
-5.9437588788568974e-05,2.6430363504914567e-05,-1.9915147277060896e-05,2.6024592443718575e-05
-5.919760951655917e-05,3.187101174262352e-05,-2.0635909095290117e-05,2.727459832385648e-05
-5.647996295010671e-05,3.315776848467067e-05,-2.4399299945798703e-05,3.117289816145785e-05
-5.42796406080015e-05,3.444639150984585e-05,-2.6937786969938315e-05,3.417998232180253e-05
-6.026594928698614e-05,3.5795033909380436e-05,-2.623870204843115e-05,3.291111715952866e-05
-6.908623618073761e-05,3.7039106246083975e-05,-2.5625644411775284e-05,2.9670547519344836e-05
-7.042615470709279e-05,3.735401696758345e-05,-2.6238354621455073e-05,2.752550608420279e-05
-6.798721005907282e-05,4.012056524516083e-05,-2.7620151740848087e-05,2.7130416128784418e-05
-6.555520667461678e-05,5.2217223128536716e-05,-2.811276681313757e-05,2.4669319827808067e-05
-6.285654671955854e-05,6.141221820143983e-05,-2.5746208848431706e-05,2.162346754630562e-05
-6.055965059204027e-05,5.806467015645467e-05,-2.3425829567713663e-05,2.2536192773259245e-05
-5.746249371441081e-05,5.2116090955678374e-05,-2.4689685233170167e-05,2.520201996958349e-05
-5.5567503295606e-05,4.417925083544105e-05,-2.533966653572861e-05,2.7986177883576602e-05
-5.474561112350784e-05,3.354153159307316e-05,-2.4779694285825826e-05,2.9933162295492366e-05
-5.394356412580237e-05,2.746254176599905e-05,-2.418932126602158e-05,3.145505252177827e-05
-5.541515565710142e-05,2.573364326963201e-05,-2.3477683498640545e-05,2.994663555000443e-05
-5.591887020273134e-05,2.2149475626065396e-05,-2.3051448806654662e-05,2.4889734049793333e-05
-5.222361141932197e-05,1.400343080604216e-05,-2.472635605954565e-05,1.897799302241765e-05
-4.588441152009182e-05,2.863408326447825e-06,-2.9530967367463745e-05,1.5694156900281087e-05
-4.2285209929104894e-05,-3.971156274928944e-06,-3.255477349739522e-05,1.6236064766417257e-05
-4.262966467649676e-05,-4.482843962705374e-07,-3.0435372536885552e-05,1.8788539819070138e-05
-4.5322245568968356e-05,1.0520292562432587e-05,-2.549116288719233e-05,2.22056496568257e-05
-4.851899211644195e-05,2.199756090703886e-05,-2.293390207341872e-05,2.4688304620212875e-05
-5.169663927517831e-05,2.8585505788214505e-05,-2.1750880478066392e-05,2.3978751414688304e-05
-5.455964492284693e-05,3.036222915397957e-05,-2.0196526747895405e-05,2.333568045287393e-05
-5.176683407626115e-05,2.9449709472828545e-05,-2.0210916773066856e-05,2.326588764844928e-05
-4.353386611910537e-05,2.6967058147420175e-05,-2.281581691931933e-05,2.1085435946588404e-05
-3.976123480242677e-05,2.7819703973364085e-05,-2.439281888655387e-05,1.9918159523513168e-05
-4.315032856538892e-05,2.8585511245182715e-05,-2.3497905203839764e-05,2.0744288121932186e-05
-4.498454654822126e-05,2.8808026399929076e-05,-2.5684839783934876e-05,2.586166374385357e-05
-4.0354894736083224e-05,3.872641900670715e-05,-2.660704376467038e-05,3.081426257267594e-05
-3.516505967127159e-05,5.0391085096634924e-05,-2.5555520551279187e-05,3.122185808024369e-05
-3.056512650800869e-05,5.123576556798071e-05,-2.5036562874447554e-05,3.2534309866605327e-05
-3.422000372665934e-05,4.262339280103333e-05,-2.467824197083246e-05,3.4870819945354015e-05
-4.232926949043758e-05,2.779590431600809e-05,-2.5998808268923312e-05,3.261997699155472e-05
-4.151056054979563e-05,1.5224340131680947e-05,-2.2835763957118616e-05,2.511350976419635e-05
-4.131550304009579e-05,1.3805424714519177e-05,-2.123156446032226e-05,2.0033878172398545e-05
-4.646283559850417e-05,2.3114445866667666e-05,-2.1033660232205875e-05,1.8759590602712706e-05
-5.287366730044596e-05,3.630602077464573e-05,-2.0896753994747996e-05,1.89929469343042e-05
-5.363111267797649e-05,4.3743122660089284e-05,-2.3960592443472706e-05,2.2256255761021748e-05
-5.1074588554911315e-05,4.408317545312457e-05,-2.732578468567226e-05,2.4061184376478195e-05
-5.18673041369766e-05,4.0317092498298734e-05,-2.8929054678883404e-05,2.3084327040123753e-05
-5.32506855961401e-05,3.63685903721489e-05,-2.8835200282628648e-05,2.348975249333307e-05
-5.6202919950010255e-05,3.259042205172591e-05,-2.5611738237785175e-05,2.5222780095646158e-05
-6.088327063480392e-05,2.8492917408584617e-05,-1.9313431039336137e-05,2.6337407689425163e-05
-6.332061457214877e-05,2.4570577807025984e-05,-1.6280857380479574e-05,2.4460259737679735e-05
-5.821988816023804e-05,2.269816650368739e-05,-1.875234920589719e-05,1.978323416551575e-05
-4.9092774133896455e-05,2.5398514480912127e-05,-2.2843334591016173e-05,1.7126045349868946e-05
-4.456699753063731e-05,3.330024628667161e-05,-2.2837702999822795e-05,1.8970931705553085e-05
-4.447695755516179e-05,3.907929203705862e-05,-2.2191052266862243e-05,2.2224778149393387e-05
-4.60714400105644e-05,3.76971838704776e-05,-2.3268275981536135e-05,2.3554381186841056e-05
-5.1951181376352906e-05,3.3569558581802994e-05,-2.4007118554436602e-05,2.419869451841805e-05
-6.203115481184795e-05,2.864121961465571e-05,-2.3223148673423566e-05,2.3830114514566958e-05
-6.592206045752391e-05,2.42940841417294e-05,-2.3113338102120906e-05,2.210573074989952e-05
-6.251024751691148e-05,2.089802364935167e-05,-2.298120489285793e-05,1.9930848793592304e-05
-5.836546188220382e-05,2.2928712496650405e-05,-2.077275530609768e-05,1.784602864063345e-05
-5.6592914916109294e-05,2.647743167472072e-05,-1.679356864769943e-05,1.898547816381324e-05
-5.281947596813552e-05,2.6275025447830558e-05,-1.4432902389671654e-05,2.1566575014730915e-05
-4.612723569152877e-05,2.748556471487973e-05,-1.3883211977372412e-05,2.3687389330007136e-05
-4.3609074054984376e-05,2.8921745979459956e-05,-1.6877789676073007e-05,2.1767267753602937e-05
-4.604431160259992e-05,2.4923914679675363e-05,-2.0311026673880406e-05,2.1325335183064453e-05
-4.884885493083857e-05,1.906277975649573e-05,-1.9839822925860062e-05,2.3636986952624284e-05
-4.910927600576542e-05,1.806888758437708e-05,-1.8465550965629518e-05,2.2302427169051953e-05
-4.9243157263845205e-05,2.2692891434417106e-05,-1.5142260053835344e-05,1.6867621525307186e-05
-4.678530967794359e-05,2.9392984288278967e-05,-1.4871115126879886e-05,1.1876267308252864e-05
-4.3517869926290587e-05,3.332059714011848e-05,-1.8214292140328325e-05,1.3277704965730663e-05
-4.188747698208317e-05,3.1900617614155635e-05,-2.235588908661157e-05,1.7500246030976996e-05
-4.5042681449558586e-05,2.9422453735605814e-05,-2.6802374122780748e-05,2.10610160138458e-05
-4.767877544509247e-05,3.22695923387073e-05,-2.9742410333710723e-05,2.2416421415982768e-05
-4.203058051643893e-05,4.0488175727659836e-05,-3.18353486363776e-05,2.3560285626444966e-05
-3.645587639766745e-05,4.736394839710556e-05,-3.293281406513415e-05,2.3635684556211345e-05
-3.975973231717944e-05,4.83590665680822e-05,-3.03639371850295e-05,2.366797525610309e-05
-4.694737435784191e-05,4.121595702599734e-05,-2.5984441890614107e-05,2.279572254337836e-05
-4.678805998992175e-05,3.0214987418730743e-05,-2.4099490474327467e-05,2.0869632862741128e-05
-4.24505487899296e-05,2.2362752133631147e-05,-2.4876668248907663e-05,2.0979799955966882e-05
-3.791068593272939e-05,1.834020804380998e-05,-2.6029276341432706e-05,2.3851725927670486e-05
-3.331369589432143e-05,1.6976278857327998e-05,-2.6574462026474066e-05,2.7005573429050855e-05
-3.3810782042564824e-05,1.7311469491687603e-05,-2.70115979219554e-05,2.7727415726985782e-05
-3.930056482204236e-05,1.740520565363113e-05,-2.7915479222428985e-05,2.7305601179250516e-05
-4.3197916966164485e-05,1.9444452846073546e-05,-2.9781256671412848e-05,2.787086668831762e-05
-4.675878517446108e-05,2.857127219613176e-05,-2.99663188343402e-05,3.024886791536119e-05
-5.2206865802872926e-05,4.1760067688301206e-05,-2.773177948256489e-05,3.185668902006e-05
-5.4137221013661474e-05,5.197630889597349e-05,-2.7415297154220752e-05,3.2121275580720976e-05
-4.9933190894080326e-05,5.8003504818771034e-05,-2.855796628864482e-05,3.449456926318817e-05
-4.3997566535836086e-05,6.192152068251744e-05,-2.7654310542857274e-05,3.498678779578768e-05
-3.554659633664414e-05,5.949168189545162e-05,-2.54825281444937e-05,3.312109038233757e-05
-3.139525870210491e-05,5.159716965863481e-05,-2.4740291337366216e-05,3.204842869308777e-05
-3.74603368982207e-05,4.455081943888217e-05,-2.5204455596394837e-05,2.8712885978166014e-05
-5.189634975977242e-05,4.2540541471680626e-05,-2.561090877861716e-05,2.616913479869254e-05
-6.289271550485864e-05,4.327252463554032e-05,-2.3606979084433988e-05,2.4656586901983246e-05
-6.673145981039852e-05,3.830403875326738e-05,-2.1723704776377417e-05,2.5000981622724794e-05
-7.211263437056914e-05,3.084083800786175e-05,-2.3315438738791272e-05,2.5826526325545274e-05
-7.77355016907677e-05,2.5247822122764774e-05,-2.5385948902112432e-05,2.4804667191347107e-05
-7.795448618708178e-05,1.8760605598799884e-05,-2.7827174562844448e-05,2.2182819520821795e-05
-7.322366582229733e-05,1.4245974853110965e-05,-3.011046464962419e-05,2.114802919095382e-05
-6.82144018355757e-05,1.6671203411533497e-05,-3.1314284569816664e-05,2.2182644897839054e-05
-6.351349293254316e-05,2.294659861945547e-05,-3.033071698155254e-05,2.2849004380987026e-05
-6.223766104085371e-05,2.817770655383356e-05,-3.081132308579981e-05,2.1902764274273068e-05
-6.144273356767371e-05,3.3581080060685053e-05,-3.379819463589229e-05,2.1138372176210396e-05
-5.7805835240287706e-05,3.6959048884455115e-05,-3.677836139104329e-05,2.168062019336503e-05
-4.967127460986376e-05,3.79173070541583e-05,-3.568425745470449e-05,2.4182079869206063e-05
-4.288998752599582e-05,4.190925756120123e-05,-3.10680661641527e-05,2.858301013475284e-05
-4.135583367315121e-05,5.1005601562792435e-05,-2.7590658646658994e-05,3.113941056653857e-05
-4.521186201600358e-05,5.904998033656739e-05,-2.6889041691902094e-05,3.0873303330736235e-05
-5.1555984100559726e-05,6.130927795311436e-05,-2.557351763243787e-05,2.8756607207469642e-05
-5.385769691201858e-05,5.5323449487332255e-05,-2.113416303473059e-05,2.546784162404947e-05
-5.2627958211814985e-05,4.6354190999409184e-05,-1.928432538989e-05,2.255210893054027e-05
-5.3956013289280236e-05,4.454077497939579e-05,-2.332155236217659e-05,2.270058757858351e-05
-5.6627875892445445e-05,4.8879021051106974e-05,-2.8676797228399664e-05,2.4520439183106646e-05
-5.460366446641274e-05,4.932353112963028e-05,-3.098233719356358e-05,2.644323103595525e-05
-5.077949754195288e-05,4.3132280552526936e-05,-3.111288606305607e-05,2.6582842110656202e-05
-4.916272882837802e-05,3.2444946555187926e-05,-2.839278386090882e-05,2.474696702847723e-05
-4.44758334197104e-05,2.1334964912966825e-05,-2.4437953470624052e-05,2.2640340830548666e-05
-3.912691681762226e-05,1.5083839571161661e-05,-2.2421540052164346e-05,2.1376567019615322e-05
-3.471502350294031e-05,1.297549533774145e-05,-2.3410000721924007e-05,2.2841406462248415e-05
-3.36336343025323e-05,1.5247229384840466e-05,-2.4938442948041484e-05,2.2816728233010508e-05
-3.9574908441863954e-05,1.818571581679862e-05,-2.733314613578841e-05,2.086381209664978e-05
-4.524644464254379e-05,1.863983561634086e-05,-2.8114636734244414e-05,2.0113575374125503e-05
-5.020375465392135e-05,1.8143780835089274e-05,-2.648370536917355e-05,1.8170681869378313e-05
-5.55955630261451e-05,2.2267411623033695e-05,-2.4786368157947436e-05,1.667495416768361e-05
-5.9259109548293054e-05,2.4262466467916965e-05,-2.4359425879083574e-05,1.3520376342057716e-05
-5.9986545238643885e-05,2.2052649001125246e-05,-2.431566099403426e-05,1.2252353371877689e-05
-6.037386629031971e-05,2.5479777832515538e-05,-2.5550389182171784e-05,1.4158500562189147e-05
-5.871819666936062e-05,3.53502000507433e-05,-2.622352803882677e-05,1.657446046010591e-05
-5.5975931900320575e-05,4.413914211909287e-05,-2.402744212304242e-05,1.8077025742968544e-05
-5.375032560550608e-05,4.774143599206582e-05,-2.2439964595832862e-05,2.055034929071553e-05
-5.364684693631716e-05,4.6027227654121816e-05,-2.4347067665075883e-05,2.3914401026559062e-05
-5.5433141824323684e-05,4.2004645365523174e-05,-2.6291374524589628e-05,2.641122591739986e-05
-5.931704436079599e-05,4.0744300349615514e-05,-2.532584039727226e-05,2.9646980692632496e-05
-6.151286652311683e-05,4.0149607229977846e-05,-2.3579634216730483e-05,3.196325997123495e-05
-5.7674642448546365e-05,3.803567960858345e-05,-2.170348852814641e-05,3.338296664878726e-05
-5.084220174467191e-05,3.6381847166921943e-05,-2.190041595895309e-05,3.327412196085788e-05
-4.649661423172802e-05,3.4367720218142495e-05,-2.4812985429889522e-05,3.088829907937907e-05
-4.708445703727193e-05,2.6884177714237012e-05,-2.8301996280788444e-05,2.7975638658972457e-05
-5.007997970096767e-05,2.160001895390451e-05,-3.222565646865405e-05,2.6479347070562653e-05
-5.25570212630555e-05,2.4634979126858525e-05,-3.3798947697505355e-05,2.4916036636568606e-05
-5.4619242291664705e-05,2.946157837868668e-05,-3.27699126501102e-05,2.2421607354772277e-05
-5.699392932001501e-05,2.8356200346024707e-05,-3.362783172633499e-05,2.099235643981956e-05
-5.5978121963562444e-05,2.4865259547368623e-05,-3.2664440368535e-05,2.6450064979144372e-05
-5.026455255574547e-05,2.149578904209193e-05,-2.8599581128219143e-05,2.9479995646397583e-05
-4.37470298493281e-05,2.2251930204220116e-05,-2.4227269022958353e-05,2.571371805970557e-05
-4.4056345359422266e-05,3.140727130812593e-05,-2.429740379739087e-05,2.1438931071315892e-05
-5.132028309162706e-05,3.760260369745083e-05,-2.7798805604106747e-05,1.676145075180102e-05
-5.8987825468648225e-05,3.912270040018484e-05,-3.2168096367968246e-05,1.4925729374226648e-05
-6.135500007076189e-05,3.884906982420944e-05,-3.46888555213809e-05,1.6615604181424715e-05
-6.41179722151719e-05,4.108832581550814e-05,-3.675608240882866e-05,1.86360593943391e-05
-6.690239388262853e-05,4.776541027240455e-05,-3.7517162127187476e-05,1.8727103451965377e-05
-6.255046901060268e-05,5.1561801228672266e-05,-3.5795859730569646e-05,1.5944371625664644e-05
-5.551401409320533e-05,4.838139284402132e-05,-3.458803257672116e-05,1.3982925338495988e-05
-5.178674837225117e-05,4.3312724301358685e-05,-3.333445420139469e-05,1.640328082430642e-05
-5.140190478414297e-05,4.3127940443810076e-05,-3.25951368722599e-05,2.0845029212068766e-05
-4.9249974836129695e-05,4.6089575334917754e-05,-3.074032792937942e-05,2.3076216166373342e-05
-4.269872806617059e-05,4.802799958270043e-05,-2.9150354748708196e-05,1.9443739802227356e-05
-3.1942661735229194e-05,4.3390406062826514e-05,-3.0813323974143714e-05,1.5222645743051544e-05
-2.2215619537746534e-05,3.2975141948554665e-05,-3.23405911331065e-05,1.735064506647177e-05
-1.823922502808273e-05,2.6783396606333554e-05,-3.019684663740918e-05,2.2933043510420248e-05
-1.4978992112446576e-05,2.711600245675072e-05,-2.5904630092554726e-05,2.4757680876064114e-05
-1.109985987568507e-05,2.7428037356003188e-05,-2.33654700423358e-05,2.1114003175171092e-05
-1.2917246749566402e-05,2.798421701299958e-05,-2.2188207367435098e-05,1.785014319466427e-05
-2.0456280253711157e-05,2.8435775675461628e-05,-1.8502187231206335e-05,2.050542207143735e-05
-2.8084710720577277e-05,2.6337040253565647e-05,-1.783809238986578e-05,2.5581441150279716e-05
-3.0435467124334536e-05,2.4361990654142573e-05,-2.28979297389742e-05,2.8756448955391534e-05
-3.064748307224363e-05,2.526967364246957e-05,-2.8386208214215003e-05,2.9928602089057676e-05
-3.331659172545187e-05,2.7864884032169357e-05,-2.7403431886341423e-05,3.255603587604128e-05
-3.28525566146709e-05,3.035466761502903e-05,-2.3273709302884527e-05,3.880330405081622e-05
-2.542384754633531e-05,2.98540253425017e-05,-2.3349815819528885e-05,3.910854866262525e-05
-2.2899788746144623e-05,2.8722899514832534e-05,-2.390709960309323e-05,3.375410960870795e-05
-3.121265763184056e-05,2.7688143745763227e-05,-2.402302561677061e-05,2.9266022465890273e-05
-3.8924852560739964e-05,2.5876943254843354e-05,-2.3507125661126338e-05,2.5452582121943124e-05
-4.473360240808688e-05,2.645534186740406e-05,-2.2492804419016466e-05,2.4972609026008286e-05
-4.997301221010275e-05,3.09295101033058e-05,-2.0014405890833586e-05,2.7174372007721104e-05
-5.690249599865638e-05,3.45028965966776e-05,-1.5994430214050226e-05,2.9516504582716152e-05
-6.318928353721276e-05,3.0031138521735556e-05,-1.6861784388311207e-05,3.07113841699902e-05
-6.233408930711448e-05,2.4300466975546442e-05,-1.9715282178367488e-05,3.2879135687835515e-05
-5.5643493396928534e-05,2.2221760445972905e-05,-2.1041394575149752e-05,3.536481744959019e-05
-5.347780461306684e-05,2.331542236788664e-05,-2.2221396648092195e-05,3.439266583882272e-05
-5.783599044661969e-05,2.5841232854872942e-05,-2.389401925029233e-05,3.255460615037009e-05
-5.8689347497420385e-05,2.8249047318240628e-05,-2.369354297115933e-05,3.187485344824381e-05
-5.5713906476739794e-05,2.7011805286747403e-05,-2.2676213120575994e-05,3.130601180600934e-05
-5.400964437285438e-05,2.3547579985461198e-05,-2.1120898963999934e-05,3.0413873901125044e-05
-5.775366662419401e-05,2.0695933926617727e-05,-1.7639926227275282e-05,2.855133243429009e-05
-6.331328040687367e-05,1.977299507416319e-05,-1.5419274859596044e-05,2.433101508358959e-05
-6.455696711782366e-05,2.01707716769306e-05,-1.7168173144455068e-05,2.142167249985505e-05
-5.901870827074163e-05,2.2339560018735938e-05,-2.150165346392896e-05,2.1933587049716152e-05
-5.397646964411251e-05,2.792003215290606e-05,-2.4043260054895654e-05,2.1921783627476543e-05
-5.756935934186913e-05,3.362037386978045e-05,-2.283997309859842e-05,1.9310695279273205e-05
-6.632074655499309e-05,3.677340646390803e-05,-2.139196112693753e-05,1.5667204934288748e-05
-7.067386468406767e-05,3.5180866689188406e-05,-2.4426417439826764e-05,1.470648294343846e-05
-6.95831113262102e-05,3.3563053875695914e-05,-2.9252525564515963e-05,1.780849379429128e-05
-6.492194370366633e-05,3.550791370798834e-05,-3.167084651067853e-05,1.8101633031619713e-05
-6.112670962465927e-05,3.464284964138642e-05,-2.9961986001580954e-05,1.2051807971147355e-05
-6.138629396446049e-05,2.9524719138862565e-05,-2.7312094971421175e-05,8.06218849902507e-06
-6.00341081735678e-05,2.7215970476390794e-05,-2.8522070351755247e-05,6.613221103179967e-06
-5.5925756896613166e-05,2.7442400096333586e-05,-2.8060301701771095e-05,9.50056164583657e-06
-5.296515882946551e-05,2.4932083761086687e-05,-2.8456626750994474e-05,1.7135498637799174e-05
-5.549052366404794e-05,1.917527879413683e-05,-3.073091647820547e-05,2.326182038814295e-05
-5.895747017348185e-05,1.6436108126072213e-05,-2.8791275326511823e-05,2.4359735107282177e-05
-5.8669946156442165e-05,1.7306067093159072e-05,-2.695928924367763e-05,2.162935197702609e-05
-5.6361521274084225e-05,1.8564391211839393e-05,-2.1286075934767723e-05,2.0326144294813275e-05
-5.2899289585184306e-05,1.7715490685077384e-05,-1.374300063616829e-05,1.9464818251435645e-05
-4.879257903667167e-05,1.684303060756065e-05,-1.0502046279725619e-05,1.853408684837632e-05
-4.6098506572889164e-05,1.989944212255068e-05,-1.318444174103206e-05,1.6908670659177005e-05
-4.7703098971396685e-05,2.6085950594278984e-05,-1.990031341847498e-05,1.6123201930895448e-05
-5.211519237491302e-05,3.266868588980287e-05,-2.513619801902678e-05,1.694147431408055e-05
-5.79385923629161e-05,3.787220339290798e-05,-2.7580199457588606e-05,1.8802384147420526e-05
-6.32287046755664e-05,4.053374505019747e-05,-2.997504998347722e-05,1.9911149138351902e-05
-6.58391581964679e-05,4.0041744796326384e-05,-3.1013267289381474e-05,2.0596255126292817e-05
-6.35544492979534e-05,3.5393233702052385e-05,-3.056378773180768e-05,2.0587624021572992e-05
-5.5298132792813703e-05,2.7883646907866932e-05,-2.786562981782481e-05,1.976632484002039e-05
-4.633025673683733e-05,2.1386709704529494e-05,-2.3110895199351944e-05,1.9207229343010113e-05
-3.950361133320257e-05,1.772864743543323e-05,-2.0053228581673466e-05,1.848443025664892e-05
-3.4333545045228675e-05,1.4544730220222846e-05,-2.0487765141297132e-05,1.7140115232905373e-05
-3.358066169312224e-05,1.0048351214209106e-05,-2.2849086235510185e-05,1.6469237380078994e-05
-3.947266668546945e-05,8.49140269565396e-06,-2.5300538254668936e-05,1.782653089321684e-05
-5.004452759749256e-05,1.2459579920687247e-05,-2.7570755264605395e-05,2.0871253582299687e-05
-6.041614688001573e-05,1.8810575056704693e-05,-2.9380307751125656e-05,2.533102269808296e-05
-6.574764120159671e-05,2.4125009076669812e-05,-3.255703268223442e-05,2.7241585485171527e-05
-6.475709233200178e-05,2.9810911655658856e-05,-3.362672578077763e-05,2.5916693630279042e-05
-5.88968578085769e-05,3.554348222678527e-05,-3.071572064072825e-05,2.2361360606737435e-05
-4.736934351967648e-05,4.2848525481531397e-05,-2.8348826162982732e-05,2.1691837901016697e-05
-3.376706445124e-05,4.873273792327382e-05,-3.0347790016094223e-05,2.38669181271689e-05
-2.7234968001721427e-05,4.932655065204017e-05,-3.224479587515816e-05,2.4870862034731545e-05
-2.7644375222735107e-05,5.1374354370636865e-05,-3.191369614796713e-05,2.324048546142876e-05
-3.336314330226742e-05,5.9885820519411936e-05,-2.990269240399357e-05,2.5140452635241672e-05
-3.665702388389036e-05,6.868426135042682e-05,-2.9755949071841314e-05,2.938667603302747e-05
-3.09692659357097e-05,6.810868944739923e-05,-2.881078762584366e-05,2.8610194931388833e-05
-2.799738649628125e-05,6.224923708941787e-05,-2.9104714485583827e-05,2.7323105314280838e-05
-3.151328201056458e-05,5.958858673693612e-05,-2.9096383514115587e-05,2.9472679671016522e-05
-2.9746299333055504e-05,5.908060848014429e-05,-2.658770426933188e-05,3.310365718789399e-05
-2.5777997507248074e-05,5.5079312005545944e-05,-2.708500142034609e-05,3.442255183472298e-05
-3.1358689739136025e-05,4.986900603398681e-05,-2.7781774406321347e-05,3.438423664192669e-05
-4.444318619789556e-05,4.678058030549437e-05,-2.8091952117392793e-05,3.491982715786435e-05
-5.430523378890939e-05,4.228301258990541e-05,-2.8885506253573112e-05,3.463941175141372e-05
-5.6942379160318524e-05,3.703911352204159e-05,-3.102128903265111e-05,3.198556441930123e-05
-5.3433988796314225e-05,3.226062472094782e-05,-3.261684832978062e-05,2.8760974601027556e-05
-5.030017928220332e-05,2.519954796298407e-05,-3.260051380493678e-05,2.8303780709393322e-05
-5.2236777264624834e-05,1.6864329154486768e-05,-3.177759572281502e-05,3.0036302632652223e-05
-5.686272561433725e-05,1.3316482181835454e-05,-3.071351602557115e-05,3.168604598613456e-05
-6.205402314662933e-05,1.597298978595063e-05,-2.749727718764916e-05,3.141709021292627e-05
-6.823925650678575e-05,2.3305155991693027e-05,-2.251966179755982e-05,3.0139382943161763e-05
-7.432855636579916e-05,3.184071465511806e-05,-1.735258410917595e-05,2.9732422262895852e-05
-7.593882037326694e-05,3.257643402321264e-05,-1.6251140550593846e-05,3.280059900134802e-05
-6.93553447490558e-05,2.6648976927390322e-05,-1.649833211558871e-05,3.6684363294625655e-05
-5.7636352721601725e-05,2.5312048819614574e-05,-1.3169074009056203e-05,3.494286283967085e-05
-5.318336479831487e-05,2.7747142667067237e-05,-1.1551517673069611e-05,3.0126240744721144e-05
-5.572256850427948e-05,2.920361112046521e-05,-1.3481291716743726e-05,2.686151856323704e-05
-5.5202712246682495e-05,2.6917014110949822e-05,-1.5149765204114374e-05,2.5984092644648626e-05
-4.850399636779912e-05,2.7283915187581442e-05,-1.5073668691911735e-05,2.4910417778301053e-05
-4.588593219523318e-05,3.415563332964666e-05,-1.5129911844269373e-05,2.3484188204747625e-05
-4.671449278248474e-05,3.4611959563335404e-05,-1.4835788533673622e-05,2.0979585315217264e-05
-5.0946746341651306e-05,2.7832886189571582e-05,-1.743869506753981e-05,1.985084054467734e-05
-5.728174437535927e-05,2.8722539354930632e-05,-2.019638122874312e-05,2.174526707676705e-05
-5.9668691392289475e-05,3.8107977161416784e-05,-1.9453082131803967e-05,2.1731404558522627e-05
-5.9552156017161906e-05,4.2399391531944275e-05,-2.1712166926590726e-05,1.7131516869994812e-05
-5.810276707052253e-05,4.087353590875864e-05,-2.7398671591072343e-05,1.3317980119609274e-05
-5.728051473852247e-05,3.822672806563787e-05,-3.364278745721094e-05,1.3987765669298824e-05
-5.3506115364143625e-05,3.736976577783935e-05,-3.672338425531052e-05,1.7147791368188336e-05
-4.780603921972215e-05,3.871714943670668e-05,-3.634432141552679e-05,2.004115049203392e-05
-4.118353172088973e-05,3.953401756007224e-05,-3.548593304003589e-05,2.097246215271298e-05
-3.7974994484102353e-05,3.910302621079609e-05,-3.591551285353489e-05,1.9493449144647457e-05
-4.1783798224059865e-05,3.791293784161098e-05,-3.75544695998542e-05,1.7648675566306338e-05
-4.846321098739281e-05,3.717702566063963e-05,-3.663907409645617e-05,1.8363494746154174e-05
-5.062907075625844e-05,3.597345494199544e-05,-3.490915696602315e-05,2.1133277186891064e-05
-4.892249489785172e-05,3.926761564798653e-05,-3.556927549652755e-05,2.4398084860877134e-05
-4.4522894313558936e-05,4.8906353185884655e-05,-3.565781662473455e-05,2.5913775971275754e-05
-3.962888877140358e-05,5.3352177928900346e-05,-3.3065058232750744e-05,2.576946462795604e-05
-3.8819311157567427e-05,4.284867463866249e-05,-3.257279604440555e-05,2.4158225642167963e-05
-4.021737913717516e-05,2.648699955898337e-05,-3.556272349669598e-05,2.2306030587060377e-05
-4.01515826524701e-05,1.6127283743117005e-05,-3.701810055645183e-05,2.1095875126775354e-05
-4.140368400840089e-05,1.4895898857503198e-05,-3.253780596423894e-05,2.0455177946132608e-05
-4.539580913842656e-05,1.846368468250148e-05,-2.7677922844304703e-05,2.044571374426596e-05
-4.691889262176119e-05,1.920320573844947e-05,-2.637104807945434e-05,2.2717718820786104e-05
-4.768716462422162e-05,1.6266103557427414e-05,-2.9773325877613388e-05,2.2292444555205293e-05
-4.564666960504837e-05,1.4791760804655496e-05,-3.435965845710598e-05,1.7117437892011367e-05
-3.840281715383753e-05,2.006710201385431e-05,-3.0557152058463544e-05,1.4560420822817832e-05
-3.34037649736274e-05,2.8954807930858806e-05,-2.094230512739159e-05,1.6812295143608935e-05
-3.490865492494777e-05,3.7814137613167986e-05,-1.431714917998761e-05,1.981699824682437e-05
-3.532455593813211e-05,4.103375249542296e-05,-1.4114813893684186e-05,2.330899951630272e-05
-3.3302429073955864e-05,4.5182045141700655e-05,-1.3117735761625227e-05,2.627451794978697e-05
-3.4225467970827594e-05,5.1738166803261265e-05,-1.4243618352338672e-05,2.6147423341171816e-05
-4.082840678165667e-05,5.442026667878963e-05,-1.9375984265934676e-05,2.244811548735015e-05
-4.42842319898773e-05,4.708040796685964e-05,-2.3436932679032907e-05,1.591730506333988e-05
-4.125790292164311e-05,3.080751412198879e-05,-2.377388227614574e-05,1.4559392184310127e-05
-3.6559296859195456e-05,2.036279511230532e-05,-2.2714457372785546e-05,1.89395959750982e-05
-3.394714440219104e-05,2.3806731405784376e-05,-2.2561667719855905e-05,2.380649675615132e-05
-3.241658123442903e-05,3.637820191215724e-05,-2.3378703190246597e-05,2.434081216051709e-05
-2.6719213565229438e-05,4.113643808523193e-05,-2.5029428798006848e-05,2.2464784706244245e-05
-2.423533624096308e-05,3.629559796536341e-05,-2.5849487428786233e-05,2.0344192307675257e-05
-3.367206227267161e-05,3.0993065593065694e-05,-2.683208731468767e-05,1.8617873138282448e-05
-5.121858339407481e-05,3.379966437933035e-05,-2.6185716706095263e-05,1.819891440391075e-05
-6.507363286800683e-05,4.262636139173992e-05,-2.349558963032905e-05,1.8912865925813094e-05
-7.067561091389507e-05,4.9925638450076804e-05,-2.0173190932837315e-05,1.9059598344028927e-05
-7.088742859195918e-05,5.138021515449509e-05,-1.907965815917123e-05,1.815596806409303e-05
-6.950282113393769e-05,4.7550063754897565e-05,-2.0627234334824607e-05,1.9930401322199032e-05
-6.660264625679702e-05,3.9451104385079816e-05,-2.247351767437067e-05,2.3188254999695346e-05
-6.51767841191031e-05,3.13646269205492e-05,-2.3866141418693587e-05,2.4490314899594523e-05
-6.70751032885164e-05,2.8714477593894117e-05,-2.67998366325628e-05,2.381472040724475e-05
-6.837928231107071e-05,2.9316461223061197e-05,-2.7822783522424288e-05,2.3760914700687863e-05
-6.684681284241378e-05,2.8774626116501167e-05,-2.6792713470058516e-05,2.2984228053246625e-05
-6.520417082356289e-05,2.426619903417304e-05,-2.5042625566129573e-05,2.3633325326954946e-05
-6.247796409297734e-05,1.8879949493566528e-05,-2.7250978746451437e-05,2.3140319171943702e-05
-5.735982267651707e-05,1.8932390958070755e-05,-3.114908031420782e-05,2.118461088684853e-05
-5.453943958855234e-05,2.2019426978658885e-05,-3.169075716868974e-05,2.2237423763726838e-05
-5.4163414461072534e-05,2.0800096535822377e-05,-3.0477773179882206e-05,2.5166938939946704e-05
-5.6926430261228234e-05,2.063139072561171e-05,-2.6414783860673197e-05,2.45844876189949e-05
-6.0089168982813135e-05,2.2557682314072736e-05,-2.4681621653144248e-05,2.069446418317966e-05
-6.207673868630081e-05,2.4359826056752354e-05,-2.588680035842117e-05,1.9337217963766307e-05
-6.444731843657792e-05,2.5095740056713112e-05,-2.639554259076249e-05,2.1033598386566155e-05
-6.66845080559142e-05,2.455148751323577e-05,-2.5491874112049118e-05,2.3938429876579903e-05
-7.029677362879738e-05,1.9934845113311894e-05,-2.558291089371778e-05,2.54022452281788e-05
-7.035168528091162e-05,1.4747011846338864e-05,-2.7485655664349906e-05,2.5523610020172782e-05
-6.726838910253718e-05,1.6774440155131742e-05,-2.7735757612390444e-05,2.3948952730279416e-05
-6.620786734856665e-05,2.2988602722762153e-05,-2.2938833353691734e-05,2.074380245176144e-05
-6.883297464810312e-05,2.7448113542050123e-05,-1.9753570086322725e-05,1.8314192857360467e-05
-6.924037734279409e-05,2.8218077204655856e-05,-2.28050794248702e-05,1.7705304344417527e-05
-6.483525794465095e-05,2.663055420271121e-05,-2.6363151846453547e-05,1.7535339793539606e-05
-5.6029057304840535e-05,2.3035836420604028e-05,-2.6910945962299593e-05,1.9703194993780926e-05
-4.168718078290112e-05,1.993378646147903e-05,-2.6909339794656262e-05,2.516656786610838e-05
-2.6080524548888206e-05,1.966105992323719e-05,-2.684356877580285e-05,3.162064967909828e-05
-1.8448119590175338e-05,2.184213553846348e-05,-2.5038749299710616e-05,3.530799949658103e-05
-2.1212756109889597e-05,2.57483079622034e-05,-2.2606083803111687e-05,3.587707760743797e-05
-2.659480924194213e-05,3.18688471452333e-05,-2.2336167603498325e-05,3.651459701359272e-05
-3.175091842422262e-05,3.396337342564948e-05,-2.4928074708441272e-05,3.4935590520035475e-05
-3.6241432098904625e-05,3.1423813197761774e-05,-3.065781857003458e-05,3.219872814952396e-05
-4.014331352664158e-05,3.1939995096763596e-05,-3.409100099815987e-05,3.329068931634538e-05
-3.866371116600931e-05,3.41641170962248e-05,-3.0425471777562052e-05,3.645234392024577e-05
-3.669524085125886e-05,3.4929274988826364e-05,-2.5033119527506642e-05,3.701988680404611e-05
-4.14200039813295e-05,3.518769153743051e-05,-2.1767655198345892e-05,3.3691118005663157e-05
-4.46443518740125e-05,3.6403536796569824e-05,-2.1855235900147818e-05,3.146297240164131e-05
-4.4015316234435886e-05,3.9096106775105e-05,-2.3396487449645065e-05,3.0363726182258688e-05
-4.782510586665012e-05,4.008137693745084e-05,-2.5067727619898506e-05,2.7040647182730027e-05
-5.557408803724684e-05,3.5888864658772945e-05,-2.317880716873333e-05,2.595223304524552e-05
-5.843102189828642e-05,3.424975511734374e-05,-2.369503454247024e-05,2.4696706532267854e-05
-5.53052632312756e-05,3.664108589873649e-05,-2.4609820684418082e-05,2.022931403189432e-05
-5.287973181111738e-05,3.826299143838696e-05,-2.322797263332177e-05,1.5891104339971207e-05
-5.196258643991314e-05,3.7666832213290036e-05,-2.2561436708201654e-05,1.2943085494043771e-05
-5.033040724811144e-05,3.2929732697084546e-05,-2.1204210497671738e-05,1.2017411791021004e-05
-4.8026631702668965e-05,2.7267027689958923e-05,-2.2225096472539008e-05,1.4518348507408518e-05
-4.698731208918616e-05,2.388142456766218e-05,-2.2725931557943113e-05,1.5950370652717538e-05
-4.748641003970988e-05,2.3731721739750355e-05,-2.1313184333848767e-05,1.5757326764287427e-05
-5.008306470699608e-05,2.318796396139078e-05,-1.835353032220155e-05,1.759126826073043e-05
-5.434234481072053e-05,2.2948088371776976e-05,-1.7327200112049468e-05,2.085567030007951e-05
-5.6176450016209856e-05,2.486072298779618e-05,-1.752932439558208e-05,2.148671592294704e-05
-5.3243937145452946e-05,2.8526101232273504e-05,-1.840540426201187e-05,1.821621299313847e-05
-4.789684680872597e-05,3.316597576485947e-05,-1.939593130373396e-05,1.609174614713993e-05
-4.3690684833563864e-05,3.831857975455932e-05,-1.9811788661172614e-05,1.821632031351328e-05
-4.0417700802208856e-05,4.1235663957195356e-05,-2.0470388335525058e-05,1.9802288079517893e-05
-4.023181099910289e-05,4.037850885652006e-05,-2.1232186554698274e-05,1.8644879673956893e-05
-4.169048770563677e-05,3.418336564209312e-05,-2.2208334485185333e-05,1.9761444491450675e-05
-4.11783330491744e-05,2.707275234570261e-05,-2.16806565731531e-05,2.3052178221405484e-05
-4.484573219087906e-05,2.9676406484213658e-05,-2.0197368939989246e-05,2.5864948838716373e-05
-5.8548470406094566e-05,4.085817272425629e-05,-2.2281550627667457e-05,2.6635183530743234e-05
-7.26003127056174e-05,5.275626972434111e-05,-2.3999624318093993e-05,2.7805064746644348e-05
-7.431012636516243e-05,5.8273199101677164e-05,-2.399820186838042e-05,2.915904769906774e-05
-7.001585618127137e-05,5.766909453086555e-05,-2.0589855921571143e-05,2.9820697818649933e-05
-6.219994247658178e-05,5.165007314644754e-05,-1.4714364624524023e-05,3.1583640520693734e-05
-5.1100032578688115e-05,4.48051214334555e-05,-1.2797609088011086e-05,3.287592335254885e-05
-5.107722608954646e-05,4.350899689598009e-05,-1.2762954611389432e-05,3.361127164680511e-05
-6.188005500007421e-05,4.7948051360435784e-05,-1.6960899301921017e-05,3.2573334465269e-05
-7.450859266100451e-05,5.6246550229843706e-05,-2.7040321583626792e-05,2.7637212042463943e-05
-8.034921484068036e-05,6.137543095974252e-05,-3.07872069242876e-05,2.1750698579126038e-05
-7.858374010538682e-05,5.985843745293096e-05,-2.5442010155529715e-05,1.9144748875987716e-05
-7.186848961282521e-05,5.381585287977941e-05,-2.541843059589155e-05,2.029931783908978e-05
-5.9720241551985964e-05,4.1798910388024524e-05,-2.7887888791156e-05,2.1723990357713774e-05
-4.955353506375104e-05,2.8074013243895024e-05,-2.984397542604711e-05,2.1491159714059904e-05
-4.491388608585112e-05,2.156382834073156e-05,-3.1370600481750444e-05,1.764965600159485e-05
-4.4946100388187915e-05,2.3111935661290772e-05,-3.1961084459908307e-05,1.287399027205538e-05
-4.644036016543396e-05,2.5902392735588364e-05,-2.9422968509607017e-05,1.1293637726339512e-05
-4.5325512473937124e-05,2.8378457500366494e-05,-2.5540020942571573e-05,1.4472529983322602e-05
-4.0880746382754296e-05,3.049322731385473e-05,-2.2989210265222937e-05,1.9579660147428513e-05
-3.733525227289647e-05,2.8720523914671503e-05,-2.3585613234899938e-05,2.3977720047696494e-05
-3.890521475113928e-05,2.395404953858815e-05,-2.6985249860445037e-05,2.6402442017570138e-05
-4.4636188249569386e-05,2.048863098025322e-05,-2.9860091672162525e-05,2.7419519028626382e-05
-5.120546848047525e-05,2.1115492927492596e-05,-3.1282299460144714e-05,2.7375694116926752e-05
-5.449964737636037e-05,2.7338277504895814e-05,-3.0852286727167666e-05,2.6785372028825805e-05
-5.422559115686454e-05,3.430213837418705e-05,-3.03083288599737e-05,2.82448272628244e-05
-5.420112574938685e-05,3.422580994083546e-05,-3.147403913317248e-05,3.0431956474785693e-05
-5.355257599148899e-05,3.074133928748779e-05,-3.441915032453835e-05,3.256183481425978e-05
-4.929150964017026e-05,2.8454853236326016e-05,-3.412587466300465e-05,3.294370253570378e-05
-4.7775163693586364e-05,2.657393088156823e-05,-3.476220081211068e-05,3.0505041650030762e-05
-5.1942352001788095e-05,2.5224528144462965e-05,-3.5968285374110565e-05,2.9024748073425144e-05
-5.330821295501664e-05,2.8297507014940493e-05,-3.387673132237978e-05,3.0509048883686773e-05
-4.921933214063756e-05,3.04587902064668e-05,-3.247317363275215e-05,3.0029670597286895e-05
-4.332255412009545e-05,3.102585833403282e-05,-2.9488746804418042e-05,2.924017644545529e-05
-3.7559744669124484e-05,3.061979805352166e-05,-2.7510457584867254e-05,2.8205147827975452e-05
-3.419363929424435e-05,2.675611358426977e-05,-2.9208207706687972e-05,2.5274785002693534e-05
-3.886856939061545e-05,2.6926798454951495e-05,-3.0420455004787073e-05,2.481532828824129e-05
-4.862018613494001e-05,3.037476199097e-05,-3.19609789585229e-05,2.69217744062189e-05
-5.211523603065871e-05,3.4676053473958746e-05,-3.276513234595768e-05,2.34856124734506e-05
-5.029618841945194e-05,3.292629844509065e-05,-3.420426946831867e-05,1.838146818045061e-05
-4.681321661337279e-05,2.353440322622191e-05,-3.390710480744019e-05,1.934014835569542e-05
-4.508339407038875e-05,1.5213177903206088e-05,-3.435200051171705e-05,2.13836356124375e-05
-4.707226253231056e-05,1.3603136721940245e-05,-3.4036067518172786e-05,2.0800905986106955e-05
-5.0774273404385895e-05,1.3839132407156285e-05,-3.1482442864216864e-05,1.8819413526216522e-05
-5.167990457266569e-05,1.0655676305759698e-05,-2.848149415513035e-05,1.7511511032353155e-05
-4.7720510337967426e-05,5.046772457717452e-06,-2.7078380298917182e-05,1.766216882970184e-05
-4.281434667063877e-05,-1.7833134506872739e-06,-2.5825058401096612e-05,2.0493938791332766e-05
-4.1069244616664946e-05,-7.362873475358356e-06,-2.377153214183636e-05,2.32371203310322e-05
-4.214777800370939e-05,-8.081762643996626e-06,-2.1337873477023095e-05,2.0100264009670354e-05
-4.223889482091181e-05,-2.264624754388933e-06,-1.7756170564098284e-05,1.4569172890332993e-05
-4.112502938369289e-05,5.960542239336064e-06,-1.640656773815863e-05,1.4856636880722363e-05
-3.9450667827622965e-05,1.5362553313025273e-05,-1.7615369870327413e-05,1.8445984096615575e-05
-3.599144838517532e-05,2.4660444978508167e-05,-1.8587759768706746e-05,2.2123676899354905e-05
-3.3103460737038404e-05,3.531409674906172e-05,-1.9806635464192368e-05,2.6716117645264603e-05
-3.971156547777355e-05,4.6032884711166844e-05,-2.4105578631861135e-05,2.6390071070636623e-05
-5.342980512068607e-05,5.452619370771572e-05,-2.8761778594343923e-05,2.233722261735238e-05
-6.3232087995857e-05,5.8918536524288356e-05,-3.0024657462490723e-05,2.021776708716061e-05
-6.61247395328246e-05,6.079141530790366e-05,-2.6632727895048447e-05,2.2266158339334652e-05
-6.671540177194402e-05,6.393397779902443e-05,-2.4986480639199726e-05,2.6169906050199643e-05
-6.687745189992711e-05,7.230143819469959e-05,-2.4168813979486004e-05,2.9800497941323556e-05
-6.116060831118375e-05,7.932347944006324e-05,-2.126676008629147e-05,3.207590270903893e-05
-5.1677598094101995e-05,7.246746099554002e-05,-1.4726821973454207e-05,2.960903657367453e-05
-4.527867349679582e-05,5.6356344430241734e-05,-1.4316735359898303e-05,2.5719085897435434e-05
-4.329459625296295e-05,4.3606698454823345e-05,-1.7874937839224003e-05,2.3015079932520166e-05
-4.767564678331837e-05,4.172700937488116e-05,-1.990618693525903e-05,2.4073433451121673e-05
-5.359985516406596e-05,4.564777191262692e-05,-2.2555015675607137e-05,2.3885024347691797e-05
-5.463014167617075e-05,4.7088557039387524e-05,-2.3276699721463956e-05,2.3411230358760804e-05
-5.261245314613916e-05,4.092822928214446e-05,-2.1865405869903043e-05,2.4930983272497542e-05
-5.2417130063986406e-05,3.3876527595566586e-05,-2.0302079065004364e-05,2.583276182122063e-05
-5.324945959728211e-05,3.120621113339439e-05,-2.2323580196825787e-05,2.4858505639713258e-05
-5.127069016452879e-05,3.009529064001981e-05,-2.5996792828664184e-05,2.1212652427493595e-05
-4.7387846279889345e-05,2.7100306397187524e-05,-2.741702519415412e-05,1.777160468918737e-05
-4.5324635721044615e-05,2.38650700339349e-05,-2.4981169190141372e-05,1.770233575371094e-05
-4.4807500671595335e-05,2.3190666979644448e-05,-2.414451773802284e-05,1.9919098122045398e-05
-4.3073476263089105e-05,2.522919385228306e-05,-2.5503784854663536e-05,2.2824789994047023e-05
-4.0936287405202165e-05,2.8473201382439584e-05,-2.7563433832256123e-05,2.7145342755829915e-05
-4.061576692038216e-05,3.155698504997417e-05,-2.7342963221599348e-05,2.898932325479109e-05
-4.327770875534043e-05,3.4823671740014106e-05,-2.539540764701087e-05,2.768692866084166e-05
-4.670509952120483e-05,3.590305641409941e-05,-2.310666059202049e-05,2.675908399396576e-05
-4.8324058298021555e-05,3.5176428355043754e-05,-2.0143806978012435e-05,2.826319723681081e-05
-5.126672112965025e-05,3.17834856105037e-05,-1.9062870705965906e-05,3.0261142455856316e-05
-5.596293704002164e-05,2.9155104130040854e-05,-1.9358418285264634e-05,3.144295624224469e-05
-5.5326363508356735e-05,2.868129922717344e-05,-2.0490399037953466e-05,3.0257842809078284e-05
-5.4042953706812114e-05,2.617230529722292e-05,-2.2467636881629005e-05,2.662898441485595e-05
-5.6854587455745786e-05,1.8078197172144428e-05,-2.3456630515283905e-05,2.237411172245629e-05
-5.380884977057576e-05,1.229305962624494e-05,-1.9219818568672054e-05,2.282943023601547e-05
-4.796364009962417e-05,1.362427428830415e-05,-1.7278151062782854e-05,2.8424798074411228e-05
-4.628294118447229e-05,1.6502111975569278e-05,-1.876886744867079e-05,3.230401125620119e-05
-4.765733683598228e-05,1.5601362974848598e-05,-2.1237348846625537e-05,3.1519444746663794e-05
-4.767583595821634e-05,1.3115889487380628e-05,-2.480036528140772e-05,2.744003177213017e-05
-4.639693725039251e-05,1.681130743236281e-05,-2.5729965273058042e-05,2.2356025510816835e-05
-4.916718535241671e-05,1.9899027392966673e-05,-2.685032995941583e-05,1.8362432456342503e-05
-5.320828131516464e-05,2.1924979591858573e-05,-2.5636818463681266e-05,1.6325595424859785e-05
-5.4499068937730044e-05,2.7850379410665482e-05,-2.4216511519625783e-05,2.0021803720737807e-05
-5.365193646866828e-05,3.1267660233424976e-05,-2.299811239936389e-05,2.731413951551076e-05
-5.6778360885800794e-05,3.144539368804544e-05,-2.3987657186808065e-05,3.0980805604485795e-05
-6.058638246031478e-05,3.643068703240715e-05,-2.6532266929280013e-05,2.91443029709626e-05
-6.297280924627557e-05,4.0497798181604594e-05,-2.9841599825886078e-05,2.476235749782063e-05
-6.134635623311624e-05,3.919843948096968e-05,-2.945566848211456e-05,2.05376109079225e-05
-5.65530062885955e-05,3.7025722122052684e-05,-2.4673723601154052e-05,1.7215363186551258e-05
-5.155411781743169e-05,3.2499672670383006e-05,-2.1556770661845803e-05,1.5118354895093944e-05
-4.743358658743091e-05,2.6824902306543663e-05,-2.456606125633698e-05,1.3934351954958402e-05
-4.6277560613816604e-05,2.6538491511018947e-05,-3.10500108753331e-05,1.349457488686312e-05
-4.735160109703429e-05,3.0578379664802924e-05,-3.2697404094506055e-05,1.560243617859669e-05
-4.62610405520536e-05,3.038260001630988e-05,-3.146528615616262e-05,2.0451236196095124e-05
-3.829966954072006e-05,2.7762356694438495e-05,-3.038000977539923e-05,2.2816802811576054e-05
-2.896010482800193e-05,2.8080856282031164e-05,-3.04622772091534e-05,2.1968375222058967e-05
-2.8616228519240394e-05,2.952762588392943e-05,-3.086915239691734e-05,2.222177863586694e-05
-3.783483771258034e-05,2.757097900030203e-05,-3.238025965401903e-05,2.4971475795609877e-05
-4.6129189286148176e-05,2.3497150323237292e-05,-3.4801843867171556e-05,2.4935909095802344e-05
-5.2570729167200625e-05,1.813679227780085e-05,-3.5159664548700675e-05,2.110711284331046e-05
-5.9991249145241454e-05,1.5315103155444376e-05,-3.251999441999942e-05,1.962508940778207e-05
-6.629878043895587e-05,1.9280772903584875e-05,-3.4317683457629755e-05,2.3979921024874784e-05
-7.103950338205323e-05,2.5783352612052113e-05,-3.7843608879484236e-05,2.882367880374659e-05
-7.417737651849166e-05,3.0090388463577256e-05,-3.6097215343033895e-05,2.935961128969211e-05
-6.637920887442306e-05,3.370496051502414e-05,-3.1952517019817606e-05,2.652249349921476e-05
-5.8900099247694016e-05,3.8785063225077465e-05,-3.136682425974868e-05,2.1244513845886104e-05
-6.013831080053933e-05,4.342284591984935e-05,-3.350045517436229e-05,1.6433117707492784e-05
-6.36981421848759e-05,4.705554965767078e-05,-3.574784204829484e-05,1.5623892977600917e-05
-6.282266258494928e-05,5.3602121624862775e-05,-3.387723700143397e-05,1.753805008775089e-05
-5.824837353429757e-05,6.380726699717343e-05,-2.9185846869950183e-05,2.0575380403897725e-05
-5.877745934412815e-05,6.96783245075494e-05,-2.572289486124646e-05,2.1892412405577488e-05
-6.440145807573572e-05,6.79164586472325e-05,-2.7051424694946036e-05,1.9949671695940197e-05
-7.008812099229544e-05,6.178453622851521e-05,-2.9774915674352087e-05,1.980032720894087e-05
-6.702308019157499e-05,5.3769781516166404e-05,-3.372180799487978e-05,2.3116681404644623e-05
-5.7802109949989244e-05,4.418921162141487e-05,-3.8193826185306534e-05,2.5748768166522495e-05
-4.6941211621742696e-05,3.591057247831486e-05,-3.771484625758603e-05,2.6252191673847847e-05
-3.528558954712935e-05,3.0155444619595073e-05,-3.299854870419949e-05,2.6112384148291312e-05
-2.234366002085153e-05,2.6561740014585666e-05,-2.7930787837249227e-05,2.625644629006274e-05
-1.5261613953043707e-05,2.5298546461272053e-05,-2.66174683929421e-05,2.47337175096618e-05
-2.0800833226530813e-05,2.6341516786487773e-05,-2.8086667953175493e-05,2.2177489881869406e-05
-3.4754972148220986e-05,3.0015575248398818e-05,-3.0655897717224434e-05,2.267890340590384e-05
-4.465820893528871e-05,3.5350578400539234e-05,-2.888197559514083e-05,2.5704639483592473e-05
-4.6798359107924625e-05,3.726137583726086e-05,-2.3169186533777975e-05,2.7798292649094947e-05
-4.4283398892730474e-05,3.3503147278679535e-05,-1.8674163584364578e-05,3.0402528864215128e-05
-4.291846198611893e-05,3.411401485209353e-05,-2.0757421225425787e-05,3.332269989186898e-05
-4.5575641706818715e-05,3.9235339500010014e-05,-2.289248186571058e-05,3.442321758484468e-05
-5.037661685491912e-05,4.057480691699311e-05,-1.9881550542777404e-05,3.663836105260998e-05
-5.6566408602520823e-05,4.0026596252573654e-05,-1.568259540363215e-05,3.654774263850413e-05
-5.4585943871643394e-05,4.1611438064137474e-05,-1.2369469004624989e-05,3.227694105589762e-05
-4.915995668852702e-05,4.225185693940148e-05,-9.075961315829773e-06,2.934892472694628e-05
-4.2352206946816295e-05,4.1993473132606596e-05,-7.7595914262929e-06,2.758834307314828e-05
-3.49739748344291e-05,4.124224142287858e-05,-9.03711679711705e-06,2.8024058337905444e-05
-3.304231722722761e-05,3.0997369321994483e-05,-1.2702311323664617e-05,2.7348805815563537e-05
-3.690062658279203e-05,2.21517348109046e-05,-1.215056090586586e-05,2.307858449057676e-05
-4.57020869362168e-05,2.3660555598326027e-05,-1.0665373338270001e-05,2.149585634469986e-05
-5.110670826979913e-05,2.6862258891924284e-05,-1.5674366295570508e-05,2.3213637177832425e-05
-4.852255369769409e-05,2.794191095745191e-05,-2.1506308257812634e-05,2.674722964002285e-05
-4.154703492531553e-05,2.58761465374846e-05,-2.5173356334562413e-05,3.013305649801623e-05
-3.58047109330073e-05,2.210959792137146e-05,-2.431906250421889e-05,3.203553205821663e-05
-3.951205508201383e-05,2.0582525394274853e-05,-2.28206736210268e-05,2.991442488564644e-05
-5.21610927535221e-05,2.202203540946357e-05,-2.4246903194580227e-05,2.7741094527300447e-05
-6.13208903814666e-05,2.3364735170616768e-05,-2.738138755375985e-05,2.8525590096251108e-05
-6.307102739810944e-05,2.5041666958713904e-05,-3.0102557502686977e-05,3.087444565608166e-05
-6.076607678551227e-05,2.7776766728493385e-05,-3.3249190892092884e-05,3.177957842126489e-05
-5.644419070449658e-05,3.0725157557753846e-05,-3.541889964253642e-05,3.1535168091068044e-05
-5.013925692765042e-05,3.061040843022056e-05,-3.316848597023636e-05,3.137515523121692e-05
-4.323617395129986e-05,2.7930311262025498e-05,-2.6892788810073398e-05,2.9820854251738638e-05
-4.173365596216172e-05,2.3864546164986677e-05,-2.0593350200215355e-05,2.5887275114655495e-05
-4.520594666246325e-05,1.9995390175608918e-05,-1.72857671714155e-05,2.0743687855429016e-05
-4.703159356722608e-05,1.4366804862220306e-05,-1.999910455197096e-05,1.838573007262312e-05
-4.457195973373018e-05,6.166443199617788e-06,-2.5894038117257878e-05,1.737134334689472e-05
-4.032618380733766e-05,2.0224622403475223e-06,-2.7386600777390413e-05,1.532447276986204e-05
-3.970902253058739e-05,2.035002125921892e-06,-2.5981058570323512e-05,1.4512866073346231e-05
-4.422539859660901e-05,2.409835360595025e-06,-2.313729601155501e-05,1.4431430827244185e-05
-5.09279161633458e-05,3.5423202007223153e-06,-2.2874895876157098e-05,1.5062260899867397e-05
-4.915522367809899e-05,2.675652012840146e-06,-2.742699689406436e-05,1.5763875126140192e-05
-4.1285515180788934e-05,4.12356598644692e-07,-2.7957801648881286e-05,1.3238189239928033e-05
-3.98060328734573e-05,4.066769633936929e-06,-2.4784350898698904e-05,1.3047622815065552e-05
-4.6751989430049434e-05,1.1636012459348422e-05,-2.3720553144812584e-05,1.5179181900748517e-05
-5.595110997091979e-05,1.7356556782033294e-05,-2.293859506607987e-05,1.647057979425881e-05
-5.9099016652908176e-05,2.6098261514562182e-05,-2.305930138390977e-05,1.306753620156087e-05
-5.803937528980896e-05,4.03636549890507e-05,-2.4089486032607965e-05,6.7947162278869655e-06
-6.050310912542045e-05,5.4146752518136054e-05,-2.4981862225104123e-05,4.487242222239729e-06
-6.45999243715778e-05,6.63813843857497e-05,-2.74003941740375e-05,9.110000064538326e-06
-6.301567191258073e-05,7.067461410770193e-05,-3.0362447432707995e-05,1.5373772839666344e-05
-5.689403405995108e-05,6.452562229242176e-05,-3.063751864829101e-05,1.8194376025348902e-05
-5.1335802709218115e-05,5.6625551223987713e-05,-3.0043378501432016e-05,1.692664773145225e-05
-5.2502640755847096e-05,5.20577777933795e-05,-3.0040431738598272e-05,1.3478326764015947e-05
-5.6350152590312064e-05,5.0416390877217054e-05,-3.094648491241969e-05,9.813382348511368e-06
-5.6701555877225474e-05,4.945047476212494e-05,-3.2590189221082255e-05,6.870115612400696e-06
-5.222636536927894e-05,4.794441338162869e-05,-3.225306500098668e-05,7.298186119442107e-06
-4.612506745615974e-05,4.808971061720513e-05,-2.9055452614556998e-05,1.23774771054741e-05
-4.082515442860313e-05,5.137503467267379e-05,-2.5576859115972184e-05,1.8718012142926455e-05
-3.699291846714914e-05,5.244020212558098e-05,-2.3630913347005844e-05,2.1298086721799336e-05
-3.7779875128762797e-05,4.8315563617506996e-05,-2.414620394119993e-05,2.1656280296156183e-05
-4.393693234305829e-05,4.2750783904921263e-05,-2.650186070241034e-05,2.1181509509915486e-05
-4.793754851561971e-05,4.096469274372794e-05,-2.6077203074237332e-05,2.1573725462076254e-05
-4.588197043631226e-05,3.907399150193669e-05,-2.22390463022748e-05,2.379020406806376e-05
-4.4131102185929194e-05,3.540129910106771e-05,-1.8780297978082672e-05,2.6524356144363992e-05
-4.25539183197543e-05,3.4018405131064355e-05,-1.849300133471843e-05,2.7331701858201995e-05
-4.062893640366383e-05,3.370434933458455e-05,-2.1298408682923764e-05,2.570924516476225e-05
-4.279171844245866e-05,3.656676926766522e-05,-2.1015188394812867e-05,2.472019878041465e-05
-4.7189565520966426e-05,4.154662383371033e-05,-1.4283976270235144e-05,2.7242216674494557e-05
-4.303200330468826e-05,4.507444828050211e-05,-1.1378606359357946e-05,3.191698851878755e-05
-3.460763764451258e-05,4.753860775963403e-05,-1.3661304365086835e-05,3.8774782296968624e-05
-3.25343462463934e-05,4.6919009037083015e-05,-1.8608187019708566e-05,4.2954565287800506e-05
-3.490236485959031e-05,4.1371749830432236e-05,-2.3866659830673598e-05,4.27450577262789e-05
-3.6417670344235376e-05,3.49875190295279e-05,-2.5628538423916325e-05,4.0764327422948554e-05
-3.878976349369623e-05,2.830073208315298e-05,-2.6076830181409605e-05,3.617850597947836e-05
-4.486539546633139e-05,2.57207102549728e-05,-2.8538430342450738e-05,3.0784402042627335e-05
-5.238063386059366e-05,2.8071162887499668e-05,-3.0468698241747916e-05,2.7099844373879023e-05
-5.710206460207701e-05,3.0515457183355466e-05,-2.9653638193849474e-05,2.4663097065058537e-05
-5.72959725104738e-05,3.184625893482007e-05,-3.216158438590355e-05,2.1233736333670095e-05
-5.7424924307269976e-05,3.1803334422875196e-05,-3.6352561437524855e-05,1.9111854271613993e-05
-6.032208329997957e-05,3.132963684038259e-05,-3.3612413972150534e-05,2.1200237824814394e-05
-6.471474625868723e-05,2.9436034310492687e-05,-2.7061458240495995e-05,2.4141985704773106e-05
-6.61477679386735e-05,2.6059346055262722e-05,-2.6676465495256707e-05,2.39461223827675e-05
-6.395218224497512e-05,2.068346475425642e-05,-3.0383447665371932e-05,2.178198701585643e-05
-6.163582293083891e-05,1.7008245777105913e-05,-3.3259919291595e-05,1.6860412870300934e-05
-5.9308495110599324e-05,1.807365879358258e-05,-3.5044246033066884e-05,1.1526917660376057e-05
-5.6320917792618275e-05,2.3263701223186217e-05,-3.5943430702900514e-05,1.1732809070963413e-05
-5.354269887902774e-05,2.8478238164098002e-05,-3.4648757718969136e-05,1.6698011677362956e-05
-5.323486402630806e-05,3.232932431274094e-05,-3.214492608094588e-05,2.2058833565097302e-05
-5.228204099694267e-05,3.38757126883138e-05,-2.9794466172461398e-05,2.6424657335155644e-05
-4.701855868916027e-05,3.18750535370782e-05,-2.772772677417379e-05,2.819469773385208e-05
-4.499368878896348e-05,3.412273872527294e-05,-2.8006366846966557e-05,2.681218393263407e-05
-5.1148279453627765e-05,4.4134816562291235e-05,-3.0316499760374427e-05,2.7011497877538204e-05
-6.0974645748501644e-05,5.280206460156478e-05,-3.227136767236516e-05,2.766977013379801e-05
-6.618923362111673e-05,5.198684084462002e-05,-3.0935058020986617e-05,2.3355234588962048e-05
-5.9197052905801684e-05,4.452405119081959e-05,-2.9939179512439296e-05,2.065131047856994e-05
-4.6062617911957204e-05,3.852247755276039e-05,-2.9330198231036775e-05,2.2058075046516024e-05
-4.3140164052601904e-05,3.234863106627017e-05,-2.6679490474634804e-05,2.538027001719456e-05
-4.8729762056609616e-05,2.2578718926524743e-05,-2.756468893494457e-05,3.0397981390706263e-05
-5.374682950787246e-05,1.4261944670579396e-05,-2.7492240405990742e-05,3.1610408768756315e-05
-5.489909744937904e-05,1.3772526472166646e-05,-2.4449938791804016e-05,3.0287816116469912e-05
-5.430349847301841e-05,2.0950579710188322e-05,-2.2264988729148172e-05,3.073257903452031e-05
-5.498245081980713e-05,2.717697680054698e-05,-2.180180308641866e-05,3.2610241760266945e-05
-5.2896262786816806e-05,3.0509294447256252e-05,-2.204906013503205e-05,3.547181768226437e-05
-5.130662611918524e-05,3.129827746306546e-05,-2.443504308757838e-05,3.611318606999703e-05
-5.3885036322753876e-05,2.8564129024744034e-05,-2.941752791230101e-05,3.3089174394262955e-05
-5.962861541775055e-05,2.8947069949936122e-05,-3.2395335438195616e-05,3.143323920085095e-05
-6.17362602497451e-05,3.279666634625755e-05,-3.2287847716361284e-05,3.2140291295945644e-05
-6.070605377317406e-05,3.583679790608585e-05,-3.07760747091379e-05,3.2668445783201605e-05
-5.811124719912186e-05,3.466795169515535e-05,-2.7986876375507563e-05,2.9534541681641713e-05
-5.435231651063077e-05,2.92635231744498e-05,-2.3933038391987793e-05,2.4994154955493286e-05
-5.223817424848676e-05,2.4638786271680146e-05,-2.1297209968906827e-05,2.226465403509792e-05
-5.322047945810482e-05,2.500857226550579e-05,-2.0678324290202e-05,2.1074120013508946e-05
-5.650760431308299e-05,2.873266021197196e-05,-2.2602411263505928e-05,2.0906360077788122e-05
-6.0397767811082304e-05,3.007954546774272e-05,-2.5336225007777102e-05,2.180449700972531e-05
-6.311181641649455e-05,2.7118221623823047e-05,-2.727371611399576e-05,2.3539492758573033e-05
-5.9075315220979974e-05,2.506925920897629e-05,-2.8252161428099498e-05,2.2309783162199892e-05
-5.312110806698911e-05,2.5048104362213053e-05,-3.012537126778625e-05,1.7743781427270733e-05
-5.299314216244966e-05,2.1857038518646732e-05,-3.245787593186833e-05,1.5338961020461284e-05
-5.2895436965627596e-05,2.0392561054904945e-05,-3.28121313941665e-05,1.5326791981351562e-05
-4.825270298169926e-05,2.284654874529224e-05,-3.395110252313316e-05,1.6317511835950427e-05
-4.717322735814378e-05,2.3431462977896444e-05,-3.417395055294037e-05,1.812361915654037e-05
-4.918846025248058e-05,2.293931356689427e-05,-2.7939338906435296e-05,1.9852783225360326e-05
-4.450936467037536e-05,2.3623086235602386e-05,-2.185198900406249e-05,2.204641350544989e-05
-3.08078269881662e-05,2.3389986381516792e-05,-2.0585286620189436e-05,1.8986771465279162e-05
-2.411353671050165e-05,2.2815274860477075e-05,-2.1735471818828955e-05,1.488668658566894e-05
-2.8027263397234492e-05,2.2584861653740518e-05,-2.15943200601032e-05,1.4456781173066702e-05
-3.62034588761162e-05,2.367202796449419e-05,-1.8347591321798973e-05,1.5354398783529177e-05
-4.4607942982111126e-05,2.5589233700884506e-05,-1.7375910829287022e-05,1.7674596165306866e-05
-4.734614776680246e-05,2.7764654078055173e-05,-1.9440414689597674e-05,1.8968034055433236e-05
-4.788169462699443e-05,2.9163420549593866e-05,-2.0780216800631024e-05,1.8294220353709534e-05
-5.031192995375022e-05,3.07359077851288e-05,-1.8448867194820195e-05,1.833623718994204e-05
-5.360211798688397e-05,3.084427589783445e-05,-1.57997365022311e-05,2.102629696310032e-05
-5.2642917580669746e-05,3.17167941830121e-05,-1.5306570276152343e-05,2.6959367460221983e-05
-4.93834049848374e-05,3.663684765342623e-05,-1.5898644051048905e-05,3.382527575013228e-05
-5.010710810893215e-05,4.340281884651631e-05,-1.766387140378356e-05,3.7341909774113446e-05
-5.597567360382527e-05,4.8537563998252153e-05,-1.9651155525934882e-05,3.6847541196038947e-05
-6.0932539781788364e-05,4.9324491556035355e-05,-2.0743986169691198e-05,3.387275501154363e-05
-6.031714292475954e-05,4.493882443057373e-05,-2.205758028139826e-05,3.127337186015211e-05
-5.581116056418978e-05,3.9619950257474557e-05,-2.3336642698268406e-05,3.0314584364532493e-05
-4.96224602102302e-05,4.01255747419782e-05,-2.204145675932523e-05,2.925418084487319e-05
-4.5679542381549254e-05,4.486780380830169e-05,-2.0143344954703934e-05,2.7364409106667154e-05
-4.530460137175396e-05,4.818735396838747e-05,-1.9812374375760555e-05,2.6133086066693068e-05
-4.7399367758771405e-05,4.646034722100012e-05,-2.2633465050603263e-05,2.4918343115132302e-05
-4.8391182644991204e-05,4.5310000132303685e-05,-2.7482956284075044e-05,2.4573731934651732e-05
-4.487929254537448e-05,4.8861144023248926e-05,-2.8410899176378734e-05,2.549488635850139e-05
-4.340628584031947e-05,5.285361476126127e-05,-2.469233368174173e-05,2.562540612416342e-05
-4.364369306131266e-05,4.950224683852866e-05,-2.2594867914449424e-05,2.6452995371073484e-05
-4.489035563892685e-05,4.298265776014887e-05,-2.520714588172268e-05,2.7513586246641353e-05
-5.1709183026105165e-05,3.544047285686247e-05,-2.405355917289853e-05,2.495458466000855e-05
-5.4040236136643216e-05,2.665989813976921e-05,-1.9433493434917182e-05,2.3020649678073823e-05
-5.045902798883617e-05,2.254817809443921e-05,-1.4252889741328545e-05,2.306274473085068e-05
-4.761822856380604e-05,2.3376382159767672e-05,-1.2556165529531427e-05,2.2404123228625394e-05
-4.8029320169007406e-05,2.109698107233271e-05,-1.5982692275429145e-05,2.5040755645022728e-05
-5.201538442634046e-05,1.6271043932647444e-05,-1.964080729521811e-05,2.6516914658714086e-05
-5.579396747634746e-05,1.6645110008539632e-05,-1.976190287678037e-05,2.550017052271869e-05
-5.6830020184861496e-05,1.780366073944606e-05,-1.5210989658953622e-05,2.350335125811398e-05
-5.479769242811017e-05,1.5101729331945535e-05,-1.647622229938861e-05,2.2522746803588234e-05
-5.33261445525568e-05,1.0583588846202474e-05,-1.8995802747667767e-05,2.4328754079760984e-05
-5.2270661399234086e-05,8.732187779969536e-06,-1.9080174752161838e-05,2.5300250854343176e-05
-5.019568925490603e-05,1.0405561624793336e-05,-1.7607573681743816e-05,2.505985503375996e-05
-4.731555236503482e-05,1.4082745110499673e-05,-1.7220501831616275e-05,2.332784242753405e-05
-4.934000025968999e-05,1.6940126442932524e-05,-1.8301167074241675e-05,2.115510869771242e-05
-5.464038986247033e-05,1.9564635294955224e-05,-1.9963905288022943e-05,1.7574879166204482e-05
-5.755620441050269e-05,2.1634299628203735e-05,-2.2624384655500762e-05,1.2747878827212844e-05
-5.93429031141568e-05,2.2934769731364213e-05,-2.3733931811875664e-05,8.954230906965677e-06
-6.099517850088887e-05,2.445731297484599e-05,-2.3935604986036196e-05,7.327441835514037e-06
-6.0715308791259304e-05,2.537685759307351e-05,-2.4500925064785406e-05,7.696292414038908e-06
-5.950617924099788e-05,2.4155897335731424e-05,-2.7487749321153387e-05,9.455833605898079e-06
-6.0853817558381706e-05,2.2478778191725723e-05,-3.0618681194027886e-05,1.04252931123483e-05
-6.556682637892663e-05,2.2891947082825936e-05,-3.21202605846338e-05,1.1325542800477706e-05
-7.10111708031036e-05,2.484583637851756e-05,-3.299831223557703e-05,1.243715905729914e-05
-7.303518214030191e-05,2.8349017156870104e-05,-3.624765304266475e-05,1.581058677402325e-05
-7.266964530572295e-05,3.271936293458566e-05,-3.771925184992142e-05,2.1906280380790122e-05
-7.261261634994298e-05,3.517340519465506e-05,-3.548833410604857e-05,2.5874987841234542e-05
-7.179874955909327e-05,3.3130316296592355e-05,-3.036218913621269e-05,2.9255354093038477e-05
-6.809599290136248e-05,3.1551255233353004e-05,-2.6019950382760726e-05,3.237088458263315e-05
-6.314250640571117e-05,3.321921394672245e-05,-2.5148334316327237e-05,3.0512605007970706e-05
-5.4333471780410036e-05,4.043818262289278e-05,-2.8949149054824375e-05,2.757921174634248e-05
-5.075872832094319e-05,4.570288001559675e-05,-3.057340654777363e-05,2.89247946057003e-05
-5.167974086361937e-05,4.432706191437319e-05,-2.669511923159007e-05,3.0245357265812345e-05
-4.73062063974794e-05,4.397049269755371e-05,-2.5532102881697938e-05,3.153662692056969e-05
-3.5804041544906795e-05,4.1305815102532506e-05,-2.6903349862550385e-05,2.9719880330958404e-05
-1.7078999007935636e-05,3.585394370020367e-05,-2.9096740036038682e-05,2.4009566914173774e-05
-3.939238013117574e-06,3.481866588117555e-05,-2.9938866646261886e-05,2.1291269149514847e-05
-2.501308813407377e-07,4.0330614865524694e-05,-2.9439193895086646e-05,2.466476144036278e-05
8.69805035108584e-07,4.6135806769598275e-05,-2.77855469903443e-05,2.9148815883672796e-05
2.788076244542026e-06,4.8666879592929035e-05,-2.6093151973327622e-05,3.2030511647462845e-05
-3.8849051975375914e-08,5.0658676627790555e-05,-2.5273591745644808e-05,3.3496427931822836e-05
-1.1733992323570419e-05,5.141882138559595e-05,-2.310976014996413e-05,3.196886245859787e-05
-2.7228436010773294e-05,4.8227087972918525e-05,-2.0026378479087725e-05,2.979727833007928e-05
-3.60498161171563e-05,4.216993329464458e-05,-1.8439131963532418e-05,2.773502274067141e-05
-3.865743929054588e-05,3.757459489861503e-05,-2.0232513634255156e-05,2.624762782943435e-05
-4.094315227121115e-05,3.8140860851854086e-05,-2.1471929358085617e-05,2.516546010156162e-05
-4.245580930728465e-05,4.133893162361346e-05,-2.05921423912514e-05,2.3998911274247803e-05
-4.482166332309134e-05,4.1049719584407285e-05,-2.049187241937034e-05,2.2379776055458933e-05
-5.035307185607962e-05,3.941615068470128e-05,-2.3645652618142776e-05,2.1289566575433128e-05
-5.850815796293318e-05,3.922237010556273e-05,-2.9519194868043996e-05,1.908546437334735e-05
-6.539608148159459e-05,4.106327469344251e-05,-3.5344499337952584e-05,1.6223280908889137e-05
-6.663309613941237e-05,4.835108120460063e-05,-3.779425242100842e-05,1.3869268514099531e-05
-6.171745189931244e-05,5.561385478358716e-05,-3.635177563410252e-05,9.081210919248406e-06
-5.371648512664251e-05,5.723111826227978e-05,-3.306148573756218e-05,4.640587121684803e-06
-4.4657630496658385e-05,5.443349800771102e-05,-3.026186277566012e-05,5.994724688207498e-06
-4.16786533605773e-05,4.8551461077295244e-05,-2.5290903067798354e-05,7.281858415808529e-06
-4.108926441404037e-05,4.2562594899209216e-05,-2.3287762815016322e-05,8.234606866608374e-06
-3.815344098256901e-05,4.114210241823457e-05,-3.069644662900828e-05,9.880654033622704e-06
-3.6656769225373864e-05,4.146487844991498e-05,-3.436470069573261e-05,9.033044079842512e-06
-3.8802787457825616e-05,3.527634180500172e-05,-3.200862556695938e-05,1.2091799362679012e-05
-4.5275563024915755e-05,3.081250179093331e-05,-3.1050920370034873e-05,1.6865133147803135e-05
-5.209258961258456e-05,3.304795973235741e-05,-3.3364733099006116e-05,1.983099355129525e-05
-5.6596240028738976e-05,3.177056714775972e-05,-3.879407449858263e-05,2.3067146685207263e-05
-5.6926579418359324e-05,2.6331252229283564e-05,-4.603023626259528e-05,2.6703051844378933e-05
-5.9620306274155155e-05,2.1397123418864794e-05,-5.258950841380283e-05,2.9782946512568742e-05
-6.537491572089493e-05,1.797677941794973e-05,-5.444841008284129e-05,3.2042258681030944e-05
-6.848036719020456e-05,1.6732370568206534e-05,-5.322235665516928e-05,3.4222815884277225e-05
-6.852849037386477e-05,1.71720876096515e-05,-5.412694372353144e-05,3.7106754462001845e-05
-6.795751687604934e-05,1.619074282643851e-05,-5.181782762520015e-05,3.897639180650003e-05
-6.75822957418859e-05,1.5142491065489594e-05,-4.44138640887104e-05,3.816058597294614e-05
-6.671680603176355e-05,1.5847741451580077e-05,-3.538753662724048e-05,3.272361573181115e-05
-6.53824899927713e-05,1.8486489352653734e-05,-2.7425188818597235e-05,2.704897997318767e-05
-6.390698399627581e-05,2.2107620679889806e-05,-1.9795701518887654e-05,2.4967464923975058e-05
-6.3327606767416e-05,2.4532135284971446e-05,-1.1092081876995508e-05,2.4426941308774985e-05
-5.981216236250475e-05,2.480390867276583e-05,-2.627420144563075e-06,2.4270766516565345e-05
-5.403763861977495e-05,2.43330196099123e-05,3.4397162380628288e-06,2.393927934463136e-05
-5.067051461082883e-05,2.3400343707180582e-05,2.5567703687556786e-06,2.168000537494663e-05
-4.7912773879943416e-05,2.1308678697096184e-05,-3.5548007417673944e-06,1.8152195480070077e-05
-4.537635322776623e-05,2.0974515791749582e-05,-7.771968739689328e-06,1.6113062883960083e-05
-4.606881338986568e-05,2.0700637833215296e-05,-1.0364282388763968e-05,1.6992225937428884e-05
-4.7203262511175126e-05,1.8193470168625936e-05,-1.3495563507603947e-05,1.8663575247046538e-05
-4.712851659860462e-05,1.619481190573424e-05,-1.5237077604979277e-05,1.6106019756989554e-05
-4.488195190788247e-05,1.8920469301519915e-05,-1.648133729759138e-05,1.2629187040147372e-05
-4.1955019696615636e-05,2.4355218556593172e-05,-1.7802920410758816e-05,1.611270272405818e-05
-4.066642577527091e-05,3.0117258575046435e-05,-2.153205241484102e-05,2.205537020927295e-05
-3.988136813859455e-05,3.346497760503553e-05,-2.443274024699349e-05,2.2729800548404455e-05
-4.317184357205406e-05,2.9253664251882583e-05,-2.366908302064985e-05,1.968567812582478e-05
-4.795658969669603e-05,2.2831645765108988e-05,-2.2047221136745065e-05,1.714255631668493e-05
-4.878492472926155e-05,2.2304653612081893e-05,-2.075375959975645e-05,1.912090738187544e-05
-4.975261617801152e-05,2.8965123419766314e-05,-1.850997614383232e-05,2.1300040316418745e-05
-5.040686301072128e-05,3.820158963208087e-05,-1.717431405268144e-05,2.4888006009859964e-05
-4.99510279041715e-05,4.562577305478044e-05,-1.6566618796787225e-05,2.8935011869180016e-05
-4.712819281849079e-05,4.659036858356558e-05,-1.789908310456667e-05,3.0207276722649112e-05
-4.50787520094309e-05,4.113507748115808e-05,-2.1585230570053682e-05,2.9350590921239927e-05
-4.585084388963878e-05,3.644772004918195e-05,-2.6068068109452724e-05,2.9331289624678902e-05
-4.7042321966728196e-05,3.632460720837116e-05,-2.8709679099847563e-05,2.9614035156555474e-05
-4.8147656343644485e-05,3.6851157346973196e-05,-2.8425230993889272e-05,2.8612725145649165e-05
-4.8722005885792896e-05,3.5366774682188407e-05,-2.6634035748429596e-05,2.7421539925853722e-05
-4.803088813787326e-05,3.5022840165765956e-05,-2.0101935660932213e-05,2.6015190087491646e-05
-4.5603384933201596e-05,4.026528768008575e-05,-7.708643352088984e-06,2.4630273401271552e-05
-4.4875061576021835e-05,4.956566772307269e-05,3.319966481285519e-06,2.3454276742995717e-05
-4.515976252150722e-05,5.430314922705293e-05,6.533591658808291e-06,2.4119655790855177e-05
-4.440472548594698e-05,5.2566676458809525e-05,5.577830052061472e-06,2.3386590328300372e-05
-4.147009167354554e-05,4.837172309635207e-05,2.159493533326895e-06,1.971285200852435e-05
-3.951506005250849e-05,4.518142304732464e-05,-6.309508989943424e-06,1.5020449609437492e-05
-4.3436975829536095e-05,4.7432615247089416e-05,-1.843175596150104e-05,1.3856250006938353e-05
-4.8819838411873206e-05,5.5383236031048e-05,-3.2908112189034e-05,1.9261216948507354e-05
-4.8057554522529244e-05,5.8467787312110886e-05,-5.058687020209618e-05,2.708891588554252e-05
-4.577392974169925e-05,5.212747782934457e-05,-6.699855293845758e-05,3.1332998332800344e-05
-4.6418121200986207e-05,3.807499160757288e-05,-7.42914853617549e-05,3.203306550858542e-05
-4.631160481949337e-05,2.9250031730043702e-05,-6.996155570959672e-05,3.0113169486867264e-05
-4.495273242355324e-05,2.730147389229387e-05,-6.412826769519597e-05,3.001469849550631e-05
-4.941304723615758e-05,2.045362452918198e-05,-5.895200956729241e-05,2.7039344786317088e-05
-5.7758054026635364e-05,1.587927181390114e-05,-5.122391667100601e-05,1.6515899915248156e-05
-5.987402983009815e-05,1.529015389678534e-05,-4.3843581806868315e-05,9.45958436204819e-06
-5.374614556785673e-05,1.7952288544620387e-05,-4.1274182876804844e-05,1.2938106920046266e-05
-5.259242607280612e-05,2.061226223304402e-05,-4.3367173930164427e-05,2.2272346541285515e-05
-5.608507490251213e-05,2.1480085706571117e-05,-4.150831955485046e-05,2.9755345167359337e-05
-5.36568695679307e-05,1.9240627807448618e-05,-3.077384099015035e-05,3.154682781314477e-05
-4.7873945732135326e-05,1.4340457710204646e-05,-1.8582353732199408e-05,2.9716880817431957e-05
-4.3169271521037444e-05,1.4905186617397703e-05,-1.3777992535324302e-05,2.6478588551981375e-05
-4.151949178776704e-05,2.1561818357440643e-05,-1.3084450074529741e-05,2.2545646061189473e-05
-4.1241270082537085e-05,2.92616241495125e-05,-1.173112559627043e-05,2.1544045011978596e-05
-4.1612536733737215e-05,3.4826236515073106e-05,-1.0684574590413831e-05,2.5278155590058304e-05
-4.2166149796685204e-05,3.876239134115167e-05,-1.272226836590562e-05,3.0468354452750646e-05
-4.2194031266262755e-05,3.912890315405093e-05,-1.7567199392942712e-05,3.3172069379361346e-05
-4.237754546920769e-05,3.790188202401623e-05,-2.263102760480251e-05,3.3077340049203485e-05
-4.49531726189889e-05,3.7230045563774183e-05,-2.5023553462233394e-05,3.1969106203177944e-05
-4.5785865950165316e-05,3.8114656490506604e-05,-2.56522253039293e-05,3.067894795094617e-05
-4.4084292312618345e-05,3.9315684261964634e-05,-2.6541005354374647e-05,3.058450965909287e-05
-4.477703259908594e-05,4.048639675602317e-05,-2.825872434186749e-05,3.094720159424469e-05
-4.904552042717114e-05,4.0365077438764274e-05,-3.0205876100808382e-05,2.959228731924668e-05
-5.340987991075963e-05,3.783667125389911e-05,-2.8507613023975864e-05,2.9021177397225983e-05
-5.698984386981465e-05,3.378639303264208e-05,-2.214105006714817e-05,2.8384558390825987e-05
-5.951092316536233e-05,2.886406764446292e-05,-1.9249680917710066e-05,2.8706144803436473e-05
-6.0902002587681636e-05,2.4822355044307187e-05,-2.3401100406772457e-05,3.337581074447371e-05
-6.441865116357803e-05,2.3373680960503407e-05,-2.5353534510941245e-05,3.521881080814637e-05
-6.34485186310485e-05,2.056350240309257e-05,-2.392268470430281e-05,3.1336898246081546e-05
-5.589921056525782e-05,1.717500708764419e-05,-2.274392500112299e-05,3.064485645154491e-05
-4.9456375563750044e-05,1.956204869202338e-05,-2.1357582227210514e-05,3.3640659239608794e-05
-4.760975934914313e-05,2.6178462576353922e-05,-1.964989678526763e-05,3.340211696922779e-05
-4.991952300770208e-05,3.573856520233676e-05,-1.3381659300648607e-05,2.8693460990325548e-05
-5.235747812548652e-05,3.790680057136342e-05,-4.349791652202839e-06,2.5176907001878135e-05
-5.7138229749398306e-05,3.182735599693842e-05,1.4934657883713953e-06,2.7507589038577862e-05
-6.355417281156406e-05,2.5827202989603393e-05,8.859180411491252e-07,3.165712041663937e-05
-6.237693742150441e-05,2.027183654718101e-05,-7.4124122875218745e-06,3.191299765603617e-05
-5.4652264225296676e-05,1.6608659279881977e-05,-2.0772034986293875e-05,3.046072924917098e-05
-5.1676961447810754e-05,1.6486452295794152e-05,-3.726403883774765e-05,3.0559502192772925e-05
-5.3880470659350976e-05,1.632471139600966e-05,-5.3085263061802834e-05,2.995709473907482e-05
-5.456591316033155e-05,1.7661704987403937e-05,-6.283997208811343e-05,2.7326535928295925e-05
-5.5058721045497805e-05,2.1845175069756806e-05,-6.419973215088248e-05,2.6702575269155204e-05
-5.657602014252916e-05,2.277162275277078e-05,-5.879856689716689e-05,2.730424421315547e-05
-5.70020783925429e-05,2.2543912564287893e-05,-4.7293589886976406e-05,2.55395734711783e-05
-5.6062657677102834e-05,2.6421974325785413e-05,-3.124542490695603e-05,2.3974474970600568e-05
-5.493502612807788e-05,3.2016025215853006e-05,-1.541257370263338e-05,2.6168356271227822e-05
-5.4847307183081284e-05,3.703692345879972e-05,-6.053549896023469e-06,2.9439173886203207e-05
-5.3876919992035255e-05,4.1445327951805666e-05,-5.620262072625337e-06,2.8567859772010706e-05
-5.032284025219269e-05,4.24648096668534e-05,-7.825342436262872e-06,2.6387429898022674e-05
-4.973179966327734e-05,4.142669422435574e-05,-5.871257144463016e-06,2.5160459699691273e-05
-5.3975240007275715e-05,3.971235128119588e-05,-3.2998907499859342e-06,2.1171219486859627e-05
-5.648166188620962e-05,3.745455251191743e-05,-4.900295152765466e-06,1.8191634808317758e-05
-5.345312092686072e-05,3.727061994140968e-05,-6.1006385294604115e-06,1.9026632799068466e-05
-4.956480916007422e-05,3.9747592381900176e-05,-5.684046755050076e-06,1.8913255189545453e-05
-5.318522380548529e-05,4.184478530078195e-05,-4.287485353415832e-06,1.755584526108578e-05
-6.196276808623224e-05,4.261237700120546e-05,-3.812225259025581e-06,1.7922435290529393e-05
-6.395198579411954e-05,4.3694122723536566e-05,-7.9281599028036e-06,1.8278302377439104e-05
-6.07513175054919e-05,4.615517536876723e-05,-1.1364333659003023e-05,1.902161238831468e-05
-5.7739925978239626e-05,4.875742888543755e-05,-1.0761597877717577e-05,2.018974191742018e-05
-5.763969602412544e-05,5.295907976687886e-05,-9.370516636408865e-06,1.766813511494547e-05
-5.737104220315814e-05,5.600920121651143e-05,-1.2619889275811147e-05,1.3297199984663166e-05
-5.3722007578471676e-05,5.1815259212162346e-05,-2.138526542694308e-05,1.1552609066711739e-05
-5.092921492177993e-05,3.9977672713575885e-05,-2.9338933018152602e-05,1.3726443285122514e-05
-4.6684115659445524e-05,2.749954001046717e-05,-3.236861448385753e-05,1.6500154742971063e-05
-4.165728751104325e-05,2.061552368104458e-05,-3.359026595717296e-05,1.8240367353428155e-05
-3.807281973422505e-05,1.5644789527868852e-05,-3.6373552575241774e-05,1.790634632925503e-05
-3.623758675530553e-05,7.353645742114168e-06,-3.869984720950015e-05,1.7311409465037286e-05
-3.802902938332409e-05,-3.953736268158536e-06,-3.9495123928645626e-05,1.711757795419544e-05
-4.361249375506304e-05,-1.4257846487453207e-05,-3.939342423109338e-05,1.600647738086991e-05
-4.920504579786211e-05,-2.2560965589946136e-05,-3.974914943682961e-05,1.3729821148444898e-05
-5.216138015384786e-05,-2.237583976238966e-05,-3.853209636872634e-05,1.3930987734056544e-05
-5.523844811250456e-05,-9.495736776443664e-06,-3.638945781858638e-05,1.632800922379829e-05
-6.010827200952917e-05,6.921134172443999e-06,-3.7233898183330894e-05,1.4593817468266934e-05
-6.430527719203383e-05,1.5482828530366533e-05,-3.797344834310934e-05,1.1725162949005608e-05
-6.491011299658567e-05,2.0418774511199445e-05,-3.546420339262113e-05,1.4323293726192787e-05
-6.262094393605366e-05,2.7344009140506387e-05,-3.280101373093203e-05,2.0037750800838694e-05
-6.067495996830985e-05,3.0151035389280878e-05,-3.0078565032454208e-05,2.270729783049319e-05
-5.802532905363478e-05,2.9225086109363474e-05,-2.6628007617546245e-05,2.4051714717643335e-05
-5.340523421182297e-05,2.9246206395328045e-05,-2.5614288460928947e-05,2.6144540242967196e-05
-5.032467743149027e-05,3.023046338057611e-05,-2.7153933842782862e-05,2.468812817824073e-05
-4.8821366362972185e-05,3.54959920514375e-05,-2.4731732992222533e-05,2.1228654077276587e-05
-4.7404169890796766e-05,4.4657579564955086e-05,-2.2254596842685714e-05,2.165688965760637e-05
-4.450798951438628e-05,5.362182855606079e-05,-2.6010120564023964e-05,2.5275538064306602e-05
-4.205484947306104e-05,5.6370914535364136e-05,-2.999716525664553e-05,3.044225013582036e-05
-4.024125883006491e-05,5.4682423069607466e-05,-3.327219747006893e-05,3.4038144804071635e-05
-4.154495763941668e-05,5.391311788116582e-05,-3.5052387829637155e-05,3.172918513882905e-05
-5.012249312130734e-05,5.5466312915086746e-05,-3.264356928411871e-05,2.78020652331179e-05
-6.109540845500305e-05,6.186767132021487e-05,-2.8409345759428106e-05,2.5944427761714906e-05
-6.609858974115923e-05,6.493159889942035e-05,-2.6267438443028368e-05,2.4978769943118095e-05
-6.219563510967419e-05,6.223122181836516e-05,-2.7861722628585994e-05,2.291059536219109e-05
-5.834053081343882e-05,5.6615590438013896e-05,-3.24179491144605e-05,2.0470313756959513e-05
-5.9356465499149635e-05,5.363618038245477e-05,-3.644342359621078e-05,2.1049687347840518e-05
-6.463329191319644e-05,5.729922486352734e-05,-3.693997859954834e-05,2.0325524019426666e-05
-6.666503759333864e-05,6.40781654510647e-05,-3.571460911189206e-05,1.9250033801654354e-05
-6.295509956544265e-05,6.766166188754141e-05,-3.606159953051247e-05,1.9303161025163718e-05
-5.671977487509139e-05,6.771041080355644e-05,-3.559754986781627e-05,2.0764889995916747e-05
-5.2099065214861184e-05,6.185885285958648e-05,-3.3146239729830995e-05,2.1663085135514848e-05
-5.1640970923472196e-05,5.025905556976795e-05,-3.242762613808736e-05,2.2899188479641452e-05
-5.196673737373203e-05,3.755895886570215e-05,-3.548118183971383e-05,2.386039159318898e-05
-4.9349895562045276e-05,2.47184816544177e-05,-3.6774690670426935e-05,2.4844926883815788e-05
-4.5017775846645236e-05,1.1513006029417738e-05,-3.3368174626957625e-05,2.7802827389677987e-05
-4.4101168896304443e-05,5.823832225360093e-07,-3.044532422791235e-05,2.920581573562231e-05
-4.5673386921407655e-05,-5.180555945116794e-06,-2.888177550630644e-05,2.9351245757425204e-05
-4.710408393293619e-05,-7.852818271203432e-06,-2.8249462047824636e-05,2.9149738111300394e-05
-4.953091047354974e-05,-5.028635769122047e-06,-2.880433385143988e-05,2.5813384127104655e-05
-5.5225704272743315e-05,2.868817318812944e-06,-2.7989786758553237e-05,2.157141534553375e-05
-5.7951041526393965e-05,1.3602370927401353e-05,-2.2214257114683278e-05,1.9383405742701143e-05
-5.5691813031444326e-05,2.356001641601324e-05,-1.3069839042145759e-05,1.798080666048918e-05
-4.8526289901928976e-05,3.2452302548335865e-05,-9.85042606771458e-06,2.026636866503395e-05
-4.141504177823663e-05,3.9419421227648854e-05,-1.7175148968817666e-05,2.3972328563104384e-05
-4.2133448005188257e-05,4.441572309588082e-05,-2.4028500774875283e-05,2.720564771152567e-05
-4.906527101411484e-05,4.644606451620348e-05,-2.600927655294072e-05,3.038657087017782e-05
-5.5579694162588567e-05,4.588274532579817e-05,-2.9166078093112446e-05,3.176197787979618e-05
-5.9169557061977684e-05,4.564902337733656e-05,-3.116878724540584e-05,2.782818046398461e-05
-5.890797183383256e-05,4.49550716439262e-05,-2.9554616048699245e-05,2.833850339811761e-05
-5.463195702759549e-05,4.5491142373066396e-05,-2.302956818311941e-05,3.309043313493021e-05
-5.15625361003913e-05,4.381852340884507e-05,-1.8426599126541987e-05,3.4741864510579035e-05
-4.9883674364537e-05,3.714314880198799e-05,-2.120537646987941e-05,3.4196458727819845e-05
-4.607534719980322e-05,2.8703387215500697e-05,-2.571913501014933e-05,3.1129537092056125e-05
-4.216421802993864e-05,2.547308395151049e-05,-2.8267770176171325e-05,2.8841122912126593e-05
-4.3268242734484375e-05,2.750254498096183e-05,-2.7556759960134514e-05,2.8700225811917335e-05
-4.529083162196912e-05,2.9605560484924354e-05,-2.4572913389420137e-05,2.8126560209784657e-05
-4.409210669109598e-05,2.8183285394334234e-05,-2.373090865148697e-05,2.5951880161301233e-05
-4.067980626132339e-05,2.1256042600725777e-05,-2.7002823117072694e-05,2.3708498702035286e-05
-3.7068577512400225e-05,1.2559067727124784e-05,-2.8770162316504866e-05,2.3634012904949486e-05
-3.443893729127012e-05,8.182117198884953e-06,-2.563999623816926e-05,2.5959197955671698e-05
-3.2069976441562176e-05,1.0506573744351044e-05,-2.027272967097815e-05,2.7412188501330093e-05
-3.0085308026173152e-05,1.6251338820438832e-05,-1.6914427760639228e-05,2.623233558551874e-05
-2.8025586289004423e-05,2.2977870685281232e-05,-1.5214496670523658e-05,2.4383383788517676e-05
-2.64919399342034e-05,2.5359748178743757e-05,-1.5715650079073384e-05,2.2609596271649934e-05
-2.8613581889658235e-05,2.1871645003557205e-05,-1.9147986677126028e-05,2.0841909645241685e-05
-3.1218576623359695e-05,2.0362514987937175e-05,-2.2468702809419483e-05,2.1003188521717675e-05
-3.133176869596355e-05,2.5163082682411186e-05,-2.3618540581082925e-05,2.2141784938867204e-05
-3.527570879668929e-05,2.949723602796439e-05,-2.4539223886677064e-05,2.056873927358538e-05
-3.9276677853195e-05,2.6769212126964703e-05,-2.6973089916282333e-05,1.634688669582829e-05
-4.3299591197865084e-05,2.052248419204261e-05,-2.651534668984823e-05,1.619976137590129e-05
-4.5652657718164846e-05,2.3130998670239933e-05,-2.4247377950814553e-05,2.053280513791833e-05
-4.393306517158635e-05,3.6869685573037714e-05,-2.4705659598112106e-05,2.6816049285116605e-05
-4.358952719485387e-05,4.480315328692086e-05,-2.4146906071109697e-05,3.0301402148324996e-05
-4.315112892072648e-05,4.412032285472378e-05,-2.465527541062329e-05,2.8995938919251785e-05
-4.8100398998940364e-05,4.4978300138609484e-05,-2.799816502374597e-05,2.5162105885101482e-05
-5.422252070275135e-05,4.492481457418762e-05,-2.8260774342925288e-05,1.955392144736834e-05
-5.594568938249722e-05,4.455226007848978e-05,-2.56224211625522e-05,1.6351163139916025e-05
-5.4871397878741845e-05,4.716147668659687e-05,-2.4622879209346138e-05,1.7831007426138967e-05
-5.278356184135191e-05,4.781132156495005e-05,-2.5694498617667705e-05,1.8103281036019325e-05
-4.990098750567995e-05,4.741593875223771e-05,-2.525226227589883e-05,1.5692243323428556e-05
-4.548949436866678e-05,4.9482969188829884e-05,-2.3639429855393246e-05,1.6718920960556716e-05
-4.351629104348831e-05,4.936559344059788e-05,-2.1860050765099004e-05,2.1006764654885046e-05
-4.538009670795873e-05,4.6683901018695906e-05,-2.0963067072443664e-05,2.4156788640539162e-05
-5.0315316912019625e-05,4.624081338988617e-05,-2.0868719730060548e-05,2.4349905288545415e-05
-5.418328146333806e-05,4.997506766812876e-05,-2.062034582195338e-05,2.3801390852895565e-05
-5.363663876778446e-05,5.494853758136742e-05,-2.2779053324484266e-05,2.283283720316831e-05
-5.098062683828175e-05,5.901688928133808e-05,-2.654910713317804e-05,2.2380767404683866e-05
-4.946792614646256e-05,6.0437469073804095e-05,-2.6744024580693804e-05,2.2600937882089056e-05
-4.809759047930129e-05,5.6159587984438986e-05,-2.5012097466969863e-05,2.30687564908294e-05
-4.799924499820918e-05,4.8349502321798354e-05,-2.5734932933119126e-05,2.6064599296660163e-05
-4.844790237257257e-05,4.0809358324622735e-05,-3.0207422241801396e-05,2.8894335628137924e-05
-4.866353265242651e-05,3.409533383091912e-05,-3.371754792169668e-05,2.7075313482782803e-05
-4.882349821855314e-05,2.8664691853919066e-05,-3.2759999157860875e-05,2.199008667957969e-05
-4.76808927487582e-05,2.5763418307178654e-05,-3.293539339210838e-05,1.9885239453287795e-05
-4.921765503240749e-05,2.3281527319340967e-05,-3.189739800291136e-05,2.2064248696551658e-05
-5.288631655275822e-05,2.244117422378622e-05,-2.7518282877281308e-05,2.317803409823682e-05
-5.6334025430260226e-05,2.3393384253722616e-05,-2.4330574888153933e-05,2.3143666112446226e-05
-5.8449688367545605e-05,2.6632336812326685e-05,-2.4032109649851918e-05,2.152713386749383e-05
-5.6463821238139644e-05,3.098441811744124e-05,-2.7212725399294868e-05,2.1428862964967266e-05
-5.231233444646932e-05,3.504134656395763e-05,-2.8653063054662198e-05,2.4146940631908365e-05
-5.034730929764919e-05,3.666989869088866e-05,-2.9585973607026972e-05,2.3781210984452628e-05
-5.1200830057496205e-05,3.5027180274482816e-05,-3.0258335755206645e-05,2.1769441445940174e-05
-5.11013058712706e-05,3.1432668038178235e-05,-2.62742269114824e-05,1.837493800849188e-05
-5.293944195727818e-05,2.555965147621464e-05,-2.4727580239414237e-05,1.588107261341065e-05
-5.4624084441456944e-05,2.2778067432227544e-05,-2.8380822186591104e-05,1.6712903743609786e-05
-5.344560122466646e-05,2.1593225028482266e-05,-3.414684033486992e-05,2.1132220354047604e-05
-4.8410431190859526e-05,1.7629692592890933e-05,-3.7216432247078046e-05,2.4738321371842176e-05
-4.237213215674274e-05,1.813058406696655e-05,-3.448281131568365e-05,2.3869650249253027e-05
-4.2197596485493705e-05,2.5405901396879926e-05,-2.913103708124254e-05,2.1134585040272214e-05
-4.5467088057193905e-05,3.1613923056283966e-05,-2.6369711122242734e-05,1.847716521297116e-05
-4.834741775994189e-05,3.225943146389909e-05,-2.7023426810046658e-05,1.756938945618458e-05
-4.8740981583250687e-05,2.508873694750946e-05,-2.7897202016902156e-05,1.7602664229343645e-05
-5.033914203522727e-05,1.5051069567562081e-05,-2.677165684872307e-05,1.8913513486040756e-05
-5.403215254773386e-05,1.3822934306517709e-05,-2.3500253519159742e-05,1.9993643945781514e-05
-5.770511779701337e-05,2.331973155378364e-05,-1.792958937585354e-05,2.065310036414303e-05
-5.951545244897716e-05,3.0212679121177644e-05,-1.1865693522850052e-05,2.1046900656074286e-05
-6.290198507485911e-05,2.7365829737391323e-05,-1.0685662346077152e-05,2.0620296709239483e-05
-6.817585381213576e-05,1.88527974387398e-05,-1.6441776097053662e-05,1.998990228457842e-05
-7.052436558296904e-05,1.5067881577124353e-05,-2.4835333533701487e-05,2.084538937197067e-05
-6.690547888865694e-05,2.1579939129878767e-05,-2.940974445664324e-05,2.369326466578059e-05
-5.995735773467459e-05,2.8558892154251225e-05,-3.132655183435418e-05,2.658218909346033e-05
-5.699193570762873e-05,2.9416107281576842e-05,-3.0866696761222556e-05,2.8869293601019308e-05
-5.712701386073604e-05,2.8406569981598295e-05,-2.7471367502585053e-05,3.07382651953958e-05
-6.01852843828965e-05,2.519183726690244e-05,-2.8099564588046633e-05,2.842768662958406e-05
-5.819959915243089e-05,2.3102564227883704e-05,-3.056223795283586e-05,2.4064651370281354e-05
-4.8815949412528425e-05,2.8643986297538504e-05,-2.621247767820023e-05,2.3784692530171014e-05
-4.073079253430478e-05,3.37027850036975e-05,-2.0862920791842043e-05,2.796317494357936e-05
-3.400199784664437e-05,3.426037073950283e-05,-2.228621997346636e-05,3.137566091027111e-05
-2.8381873562466353e-05,3.091175312874839e-05,-2.814075196511112e-05,2.7160214813193306e-05
-2.390389454376418e-05,2.8383301469148137e-05,-3.0565592169295996e-05,2.030458017543424e-05
-2.4736838895478286e-05,3.04331915685907e-05,-2.7621314075076953e-05,1.7704622223391198e-05
-3.064473639824428e-05,3.530837420839816e-05,-2.608829890959896e-05,1.7739694158080965e-05
-4.1450533899478614e-05,3.506044959067367e-05,-2.549865166656673e-05,1.541285564599093e-05
-5.086691089672968e-05,3.0654508009320125e-05,-2.3466223865398206e-05,1.4625384210376069e-05
-5.434794002212584e-05,2.965174826385919e-05,-2.337594014534261e-05,1.7537729945615865e-05
-5.66998751310166e-05,3.204940730938688e-05,-2.4008875698200427e-05,1.9658606106531806e-05
-6.091708564781584e-05,3.4927485103253275e-05,-2.2045805962989107e-05,1.8877070033340715e-05
-6.203105294844136e-05,3.397252658032812e-05,-1.942043672897853e-05,1.8535542039899155e-05
-5.713529753847979e-05,3.1522205972578377e-05,-1.9934352167183533e-05,1.990231430681888e-05
-5.435350612970069e-05,3.0223769499571063e-05,-2.187420250265859e-05,2.272196979902219e-05
-5.644884004141204e-05,2.9981501938891597e-05,-2.1238383851596154e-05,2.6384865122963674e-05
-6.035301339579746e-05,3.055224078707397e-05,-1.7806658433983102e-05,2.7083393433713354e-05
-6.391730858013034e-05,3.342670970596373e-05,-1.4369152268045582e-05,2.4837539967847988e-05
-6.410214700736105e-05,3.600158743211068e-05,-1.4630023542849813e-05,2.2843047190690413e-05
-5.949180558673106e-05,3.5331049730302766e-05,-1.690006502030883e-05,2.213908010162413e-05
-5.458823579829186e-05,3.203415690222755e-05,-2.0795567252207547e-05,2.268034586450085e-05
-4.918751074001193e-05,3.1969480914995074e-05,-2.6849358619074337e-05,2.3518718080595136e-05
-4.4620017433771864e-05,3.580600241548382e-05,-3.145555092487484e-05,2.479690192558337e-05
-4.320979132899083e-05,3.796362580033019e-05,-3.319290772196837e-05,2.7665017114486545e-05
-4.524902396951802e-05,3.385758463991806e-05,-3.234026735299267e-05,3.0219149266486056e-05
-4.625049768947065e-05,3.155160811729729e-05,-3.585748709156178e-05,3.254801777075045e-05
-4.748637365992181e-05,3.93688642361667e-05,-4.1088198486249894e-05,3.479283259366639e-05
-4.805187927559018e-05,4.454988084034994e-05,-3.384736191947013e-05,3.55293886968866e-05
-5.0737533456413075e-05,4.1889550630003214e-05,-2.1225570890237577e-05,3.14466560666915e-05
-5.3825682698516175e-05,3.8699301512679085e-05,-1.7292781194555573e-05,2.809243233059533e-05
-5.4118907428346574e-05,3.91894718632102e-05,-2.3356942620011978e-05,2.8671272957581095e-05
-5.075271474197507e-05,4.199803152005188e-05,-3.327718877699226e-05,3.157329047098756e-05
-4.370683745946735e-05,4.259283741703257e-05,-4.223659198032692e-05,3.565075166989118e-05
-4.227853423799388e-05,4.103972969460301e-05,-4.781886309501715e-05,3.882362216245383e-05
-4.3023967009503394e-05,3.905941412085667e-05,-4.53100583399646e-05,3.864627069560811e-05
-4.3500094761839136e-05,3.6841938708676025e-05,-4.102090315427631e-05,3.516128708724864e-05
-4.857366002397612e-05,3.531632319209166e-05,-4.036921018268913e-05,3.0289978894870728e-05
-5.781468644272536e-05,3.549833854776807e-05,-3.928072328562848e-05,2.7508842322276905e-05
-6.3116560340859e-05,3.4309239708818495e-05,-3.500206730677746e-05,2.782461524475366e-05
-6.236378249013796e-05,3.409655255381949e-05,-2.817716813297011e-05,2.7931249860557728e-05
-5.762492946814746e-05,3.622579970397055e-05,-2.037961530731991e-05,2.598962964839302e-05
-5.087704994366504e-05,3.811987699009478e-05,-1.0832539373950567e-05,2.4082744857878424e-05
-4.224253643769771e-05,3.789380571106449e-05,5.119770207784313e-07,2.3838827473809943e-05
-3.344671131344512e-05,3.469315197435208e-05,1.2283367141208146e-05,2.145369944628328e-05
-2.536241117923055e-05,2.9972985430504195e-05,1.8377539163338952e-05,1.859914482338354e-05
-2.3719567252555862e-05,2.7238260372541845e-05,1.719671672617551e-05,1.7894546544994228e-05
-3.0446193704847246e-05,2.7599426175584085e-05,1.1155865649925545e-05,1.6072024664026685e-05
-3.50658519892022e-05,2.781831062748097e-05,2.6117136258108076e-06,1.3897700227971654e-05
-3.513655246933922e-05,2.8334319722489454e-05,-5.585407961916644e-06,1.797431832528673e-05
-3.8036774640204385e-05,3.062994801439345e-05,-8.539062946510967e-06,2.327595757378731e-05
-4.3897583964280784e-05,2.958950244646985e-05,-2.645379936438985e-06,2.5686696972115897e-05
-4.7162247938103974e-05,2.6072972104884684e-05,3.5162445328751346e-06,2.6294985218555667e-05
-4.862854984821752e-05,2.59874650510028e-05,5.567652806348633e-06,2.4659293558215722e-05
-4.401622209115885e-05,2.739639785431791e-05,4.1643315853434615e-06,2.6030733351944946e-05
-4.096391421626322e-05,3.136648592771962e-05,-5.669415259035304e-06,2.9255937988637015e-05
-4.653252835851163e-05,3.205169923603535e-05,-1.8324595657759346e-05,3.134950384264812e-05
-5.381085065891966e-05,2.9054890546831302e-05,-3.043924880330451e-05,3.18451966450084e-05
-5.7560086133889854e-05,2.919510552601423e-05,-4.108398570679128e-05,3.0194392820703797e-05
-5.5526819778606296e-05,3.1250787287717685e-05,-4.608723247656599e-05,3.0133285690681078e-05
-5.425972994999029e-05,2.8269356334931217e-05,-4.834673381992616e-05,3.1276682420866564e-05
-5.4660122259519994e-05,2.550898352637887e-05,-4.437513052835129e-05,3.23773710988462e-05
-5.8333353081252426e-05,2.6451796657056548e-05,-3.715091952471994e-05,2.9085626010783017e-05
-6.275296618696302e-05,2.8225567803019658e-05,-3.494357952149585e-05,2.344349013583269e-05
-6.33526942692697e-05,3.134986400255002e-05,-3.5286844649817795e-05,2.101227073580958e-05
-6.283853144850582e-05,3.303335324744694e-05,-3.5352804843569174e-05,1.9816661733784713e-05
-6.182013748912141e-05,2.9965891371830367e-05,-3.684134208015166e-05,1.764001171977725e-05
-5.862221951247193e-05,2.3549957404611632e-05,-3.818286495516077e-05,1.623427488084417e-05
-5.489644900080748e-05,2.0431329176062718e-05,-3.8738042348995805e-05,1.7356711396132596e-05
-5.301873534335755e-05,2.4283457605633885e-05,-3.9637739973841235e-05,1.907284968183376e-05
-4.940872895531356e-05,3.3104421163443476e-05,-4.130536399316043e-05,1.9308983610244468e-05
-4.5735232561128214e-05,3.924424163415097e-05,-4.163847552263178e-05,1.8554332200437784e-05
-4.569520751829259e-05,3.874636968248524e-05,-3.9042537537170574e-05,2.0126944946241565e-05
-4.709411223302595e-05,3.486383138806559e-05,-3.638892303570174e-05,2.253310776723083e-05
-4.584203634294681e-05,3.719663800438866e-05,-3.7327925383578986e-05,2.333523843844887e-05
-4.29539977631066e-05,5.046232035965659e-05,-3.928416481357999e-05,2.4268905690405518e-05
-4.015707236249e-05,6.978308374527842e-05,-4.0732040361035615e-05,2.7381942345527932e-05
-4.010521661257371e-05,8.09127013781108e-05,-4.2834719351958483e-05,3.01392483379459e-05
-4.039374471176416e-05,7.666789315408096e-05,-3.938956797355786e-05,2.8113450753153302e-05
-3.956728323828429e-05,6.332748307613656e-05,-3.294463022029959e-05,2.4843582650646567e-05
-4.1946503188228235e-05,4.555955820251256e-05,-3.3671105484245345e-05,2.5698373065097257e-05
-4.204377546557225e-05,2.9358003303059377e-05,-4.1636667447164655e-05,2.7361864340491593e-05
-3.9173453842522576e-05,1.8939163055620156e-05,-4.264269955456257e-05,2.547659823903814e-05
-4.0722170524531975e-05,5.990419595036656e-06,-3.786367233260535e-05,2.169718027289491e-05
-4.396519943838939e-05,-7.692810868320521e-06,-3.212797673768364e-05,1.790454552974552e-05
-4.6601529902545735e-05,-1.4480816389550455e-05,-2.7527265046956018e-05,1.6250349290203303e-05
-5.193147080717608e-05,-1.8347904187976383e-05,-2.543834489188157e-05,1.867850369308144e-05
-5.776006946689449e-05,-1.9821125533781014e-05,-2.3565200535813347e-05,1.927567063830793e-05
-6.349197792587802e-05,-1.3849463357473724e-05,-2.5744780941749923e-05,1.767573121469468e-05
-6.887849303893745e-05,-3.986033789260546e-06,-2.5454024580540136e-05,1.730636904540006e-05
-6.826697790529579e-05,4.5716124077443965e-06,-2.3227872588904575e-05,1.8761646060738713e-05
-6.641443906119093e-05,1.6373754988308065e-05,-1.8526983694755472e-05,2.0318921087891795e-05
-7.019005715847015e-05,3.189590643160045e-05,-1.3947114894108381e-05,2.1001671484555118e-05
-7.625130092492327e-05,4.508153142523952e-05,-9.947209946403746e-06,1.902871190395672e-05
-7.529596041422337e-05,4.814977728528902e-05,-5.1605502449092455e-06,1.6241558114415966e-05
-6.56982374493964e-05,4.032344077131711e-05,-2.2289327716862317e-06,1.6359141227439977e-05
-5.617440911009908e-05,3.3312848245259374e-05,1.8709164351093932e-07,1.910403989313636e-05
-5.228001464274712e-05,3.562257916200906e-05,6.979595923439774e-07,2.2615753550780937e-05
-5.32236517756246e-05,4.0739381802268326e-05,-2.868168394343229e-06,2.470940671628341e-05
-5.430938472272828e-05,4.1374602005816996e-05,-9.050518201547675e-06,2.6302644982933998e-05
-5.337858965503983e-05,4.059402272105217e-05,-1.1836668818432372e-05,2.8160078727523796e-05
-5.2877989219268784e-05,4.145056300330907e-05,-1.2812253771699034e-05,2.7792906621471047e-05
-5.379192953114398e-05,4.130892193643376e-05,-1.5154561879171524e-05,2.5845965865300968e-05
-5.2144649089314044e-05,4.015305603388697e-05,-2.107846739818342e-05,2.4473803932778537e-05
-4.6662487875437364e-05,3.736133294296451e-05,-3.092567567364313e-05,2.2449943571700715e-05
-3.892094173352234e-05,3.405072493478656e-05,-4.2477196984691545e-05,2.1706882762373425e-05
-3.459407889749855e-05,3.1279319955501705e-05,-5.1187696954002604e-05,1.9424374841037206e-05
-3.5421355278231204e-05,2.883196430047974e-05,-5.414234328782186e-05,1.7737918824423105e-05
-3.5723733162740245e-05,2.6128851459361613e-05,-5.175705882720649e-05,1.7838829080574214e-05
-3.466796988504939e-05,2.6985049771610647e-05,-4.952747985953465e-05,1.642216921027284e-05
-3.5848737752530724e-05,3.199351704097353e-05,-4.3474014091771096e-05,1.572112705616746e-05
-4.106353662791662e-05,3.597082832129672e-05,-2.770325227174908e-05,1.561535827931948e-05
-4.840771362069063e-05,4.092248127562925e-05,-9.493321158515755e-06,1.4178928722685669e-05
-5.126105679664761e-05,4.490690480452031e-05,1.576991195406663e-07,1.6841602700878866e-05
-4.782144969794899e-05,4.5481385313905776e-05,-3.96483392250957e-06,2.3059248633217067e-05
-4.33964523836039e-05,3.995377119281329e-05,-1.6513611626578495e-05,2.6862255253945477e-05
-4.326741327531636e-05,3.25309629261028e-05,-2.9200416975072585e-05,2.8306994863669388e-05
-4.8218644224107265e-05,2.274819416925311e-05,-4.052050644531846e-05,2.7961632440565154e-05
-5.194544428377412e-05,1.4029409612703603e-05,-5.146113835508004e-05,2.8211068638483994e-05
-5.216580393607728e-05,1.0854601896426175e-05,-5.733760553994216e-05,3.1276744266506284e-05
-5.0724524044198915e-05,1.1493881174828857e-05,-5.6795044656610116e-05,3.391527570784092e-05
-4.63820033473894e-05,1.3734596905123908e-05,-5.0716294936137274e-05,3.223910243832506e-05
-4.2093932279385626e-05,1.5472227460122667e-05,-3.964232382713817e-05,2.8671125619439408e-05
-4.208820973872207e-05,1.9006029106094502e-05,-2.4948441932792775e-05,2.654637864907272e-05
-4.560092929750681e-05,2.3544449504697695e-05,-9.893121386994608e-06,2.5858886147034355e-05
-4.7414076107088476e-05,2.9384929803200066e-05,4.8275076380832616e-08,2.3661432351218536e-05
-4.343329419498332e-05,3.231583832530305e-05,4.6686885468716355e-09,2.0388150005601346e-05
-3.799138721660711e-05,2.799970025080256e-05,-8.610001714259852e-06,1.704164060356561e-05
-3.602143988246098e-05,2.0887155187665485e-05,-1.9145825717714615e-05,1.3051934729446657e-05
-3.90075147151947e-05,2.2551874280907214e-05,-2.5602741516195238e-05,8.884268936526496e-06
-4.3448220822028816e-05,3.2398926123278216e-05,-3.0331431844388135e-05,6.934793873369927e-06
-4.373246702016331e-05,4.24828176619485e-05,-3.4742213756544515e-05,1.0900217603193596e-05
-4.5995930122444406e-05,5.107609831611626e-05,-3.7182671803748235e-05,2.0351584680611268e-05
-5.2852105000056326e-05,5.440377208287828e-05,-3.950977770728059e-05,2.994172609760426e-05
-5.611503365798853e-05,4.858745523961261e-05,-3.625871613621712e-05,3.50858063029591e-05
-5.3257423132890835e-05,4.00325698137749e-05,-3.362652569194324e-05,3.759971878025681e-05
-4.810006794286892e-05,3.7029487430118024e-05,-3.5796325391856954e-05,3.652257873909548e-05
-4.427334351930767e-05,3.45039734384045e-05,-3.537112570484169e-05,3.096580985584296e-05
-4.8154597607208416e-05,2.8709191610687412e-05,-3.081007889704779e-05,2.4967084755189717e-05
-5.838380820932798e-05,3.399128036107868e-05,-2.5698715035105124e-05,1.87503537745215e-05
-6.337660306598991e-05,4.972261012881063e-05,-2.4012440917431377e-05,1.7574304365552962e-05
-6.13154043094255e-05,6.411191134247929e-05,-2.23074275709223e-05,2.0079185560462065e-05
-5.814136966364458e-05,6.912294338690117e-05,-2.1018520783400163e-05,2.0744369976455346e-05
-5.669951133313589e-05,6.93822221364826e-05,-1.966040872503072e-05,2.182929529226385e-05
-5.560915087698959e-05,7.321876910282299e-05,-2.09284589800518e-05,2.5029294192790985e-05
-5.6124812545021996e-05,7.488323899451643e-05,-2.4976887289085425e-05,2.729720472416375e-05
-5.607514322036877e-05,6.469774234574288e-05,-2.7000223781215027e-05,2.391504676779732e-05
-5.47994532098528e-05,4.8448233428644016e-05,-2.2872656700201333e-05,1.9181299649062566e-05
-5.3781452152179554e-05,3.891317101079039e-05,-1.5179632100625895e-05,1.9650227841339074e-05
-5.413652252173051e-05,3.675796324387193e-05,-1.189046997751575e-05,2.5689039830467664e-05
-5.686970689566806e-05,3.85056555387564e-05,-1.2775858522218186e-05,3.135254155495204e-05
-6.0159356507938355e-05,4.01044417230878e-05,-1.2754167073580902e-05,3.154688602080569e-05
-6.147105887066573e-05,3.8019501516828313e-05,-9.457283340452705e-06,2.6185962269664742e-05
-6.233070598682389e-05,3.1344941817224026e-05,-7.599383479828248e-06,2.1315441699698567e-05
-6.596295861527324e-05,2.409254557278473e-05,-1.1516437552927528e-05,2.145595135516487e-05
-7.040672790026292e-05,1.78533900907496e-05,-2.0472791220527142e-05,2.293549187015742e-05
-7.308736530831084e-05,1.5074087968969252e-05,-2.8433983970899135e-05,2.2117665139376186e-05
-6.976944132475182e-05,1.7871907402877696e-05,-3.033260327356402e-05,2.1350795577745885e-05
-6.343136192299426e-05,2.6479927328182384e-05,-2.7736459742300212e-05,2.266316550958436e-05
-6.293735350482166e-05,3.239359284634702e-05,-2.818141547322739e-05,2.2751561118639074e-05
-6.482361641246825e-05,3.270601882832125e-05,-3.5078308428637683e-05,1.9777644411078654e-05
-6.504517659777775e-05,2.5552317310939543e-05,-4.065177927259356e-05,1.7769853002391756e-05
-5.9389378293417394e-05,1.8639508198248222e-05,-3.8941048842389137e-05,1.7259842934436165e-05
-5.3499534260481596e-05,1.879704541352112e-05,-3.174009543727152e-05,1.5962275938363746e-05
-5.4884068958926946e-05,1.6483918443555012e-05,-2.520363159419503e-05,1.5720806914032437e-05
-5.6247914471896365e-05,1.4040972018847242e-05,-2.5018665837706067e-05,1.655875166761689e-05
-5.501422856468707e-05,1.897234506031964e-05,-2.59288808592828e-05,2.0339466573204845e-05
-4.681237624026835e-05,2.5655810532043688e-05,-2.4416118321823888e-05,2.4158862288459204e-05
-3.897685746778734e-05,2.4189694158849306e-05,-2.0988121832488105e-05,2.5823313990258612e-05
-3.9553389797220007e-05,1.8216600437881425e-05,-1.9536251784302294e-05,2.869395939342212e-05
-4.414743307279423e-05,1.9513583538355306e-05,-2.1633124561049044e-05,3.1048904929775745e-05
-4.4568205339601263e-05,2.8576185286510736e-05,-2.4490504074492492e-05,3.247576751164161e-05
-4.065597022417933e-05,3.443448804318905e-05,-2.7063084417022765e-05,3.272329195169732e-05
-3.73366528947372e-05,3.38501158694271e-05,-2.8545948225655593e-05,3.255621777498163e-05
-3.66607382602524e-05,3.216257391613908e-05,-2.690226028789766e-05,3.257399293943308e-05
-3.7302608689060435e-05,3.3679774787742645e-05,-2.249449426017236e-05,3.379214467713609e-05
-3.670837395475246e-05,3.4948272514157e-05,-1.8725182599155232e-05,3.6191118852002546e-05
-3.576653034542687e-05,3.322285556350835e-05,-1.8779663150780834e-05,3.6306715628597885e-05
-3.540796024026349e-05,3.065626879106276e-05,-2.279306499985978e-05,3.320485120639205e-05
-3.747253867913969e-05,3.0066965337027796e-05,-2.855214916053228e-05,2.9223061574157327e-05
-4.258463377482258e-05,2.7498530471348204e-05,-3.477541031315923e-05,2.6736990548670292e-05
-4.8946254537440836e-05,2.0968522221664898e-05,-4.077031189808622e-05,2.5631456082919613e-05
-5.444690032163635e-05,1.6185196727747098e-05,-4.233971412759274e-05,2.659749225131236e-05
-5.756791870226152e-05,1.503263774793595e-05,-3.692815516842529e-05,2.649955240485724e-05
-5.4644511692458764e-05,1.8483602616470307e-05,-3.2968837331281975e-05,2.5315526727354154e-05
-5.022324694436975e-05,2.6571460693958215e-05,-3.2116466172738e-05,2.6816393074113876e-05
-5.462496847030707e-05,3.60767480742652e-05,-2.881864747905638e-05,3.070031016250141e-05
-6.289994053076953e-05,4.357691796030849e-05,-2.4863520593498833e-05,3.41548329743091e-05
-6.387500616256148e-05,4.4896063627675176e-05,-2.079830301227048e-05,3.173666482325643e-05
-6.0930673498660326e-05,4.2499224946368486e-05,-1.2679152860073373e-05,3.0500816137646325e-05
-5.9332338423701e-05,4.194870052742772e-05,-1.4218354635886499e-06,3.3614225685596466e-05
-6.210595165612176e-05,4.021043787361123e-05,4.58735803476884e-06,3.546524385455996e-05
-6.592139106942341e-05,3.76544012397062e-05,2.656765218489454e-06,3.4611832234077156e-05
-6.76506242598407e-05,3.6569632356986403e-05,-3.200811306669493e-06,2.9163680665078573e-05
-6.531880353577435e-05,3.684806506498717e-05,-1.1687807273119688e-05,2.3060334569890983e-05
-5.709602191927843e-05,3.717414801940322e-05,-1.8881344658439048e-05,2.2642889234703034e-05
-4.814819112652913e-05,3.256665513617918e-05,-2.6453401005710475e-05,2.656797551026102e-05
-3.991274570580572e-05,2.4686623874004e-05,-3.0220322514651343e-05,2.8364780519041233e-05
-3.0235467420425266e-05,2.0678240616689436e-05,-3.125833245576359e-05,2.714374022616539e-05
-2.6832345611182973e-05,2.4971239326987416e-05,-3.0539511499227956e-05,2.384854815318249e-05
-3.0489047276205383e-05,3.2782267226139084e-05,-2.8709962862194516e-05,2.2864333004690707e-05
-3.2881660445127636e-05,3.522115366649814e-05,-2.6549216272542253e-05,2.4030323402257636e-05
-3.4563723602332175e-05,2.850381497410126e-05,-2.4830860638758168e-05,2.4479650164721534e-05
-3.9924896555021405e-05,1.7216432752320543e-05,-2.4347653379663825e-05,2.303823748661671e-05
-4.6934706915635616e-05,9.970786777557805e-06,-2.4446557290502824e-05,2.248193595733028e-05
-5.147528645466082e-05,1.0039205335488077e-05,-2.7257943656877615e-05,2.2526213797391392e-05
-5.126560790813528e-05,1.4870331142446958e-05,-3.0066923500271514e-05,2.1799949536216445e-05
-4.8458929086336866e-05,1.9718127077794634e-05,-3.0584182241000235e-05,2.3169275664258748e-05
-4.9913742259377614e-05,1.9316032194183208e-05,-2.9954204364912584e-05,2.3470789528801106e-05
-5.3362473408924416e-05,1.3973090062791016e-05,-3.151896453346126e-05,2.1404752260423265e-05
-5.6116183259291574e-05,1.1713351341313682e-05,-3.390622805454768e-05,1.8419174011796713e-05
-5.408586730482057e-05,1.8512117094360292e-05,-3.617599213612266e-05,1.3831560863764025e-05
-4.831529804505408e-05,2.7223813958698884e-05,-3.7172478187130764e-05,1.0810419553308748e-05
-4.2749918065965176e-05,2.7600308385444805e-05,-3.863704114337452e-05,9.325263818027452e-06
-4.0986600652104244e-05,2.4654509616084397e-05,-3.85799357900396e-05,8.212475222535431e-06
-4.26864753535483e-05,2.5244076823582873e-05,-3.7188277929089963e-05,1.0270581697113812e-05
-3.8177538954187185e-05,2.6289924790035002e-05,-3.532716436893679e-05,1.3286251487443224e-05
-3.454619582043961e-05,2.527931792428717e-05,-3.231126902392134e-05,1.3247880815470126e-05
-3.735733116627671e-05,2.6178511689067818e-05,-2.9408738555503078e-05,9.60995748755522e-06
-4.098534191143699e-05,2.813621176755987e-05,-3.0013321520527825e-05,9.245655746781267e-06
-4.407270535011776e-05,2.9038255888735875e-05,-3.048212602152489e-05,1.0656830454536248e-05
-4.3749314500018954e-05,3.1017068977234885e-05,-3.11989315378014e-05,1.0673838914954104e-05
-4.024650115752593e-05,3.501199898892082e-05,-3.165034650010057e-05,1.1399286449886858e-05
-3.7009322113590315e-05,4.036510654259473e-05,-3.0451665224973112e-05,1.3033749382884707e-05
-3.8217440305743366e-05,4.545489719021134e-05,-2.932233110186644e-05,1.6250049156951718e-05
-4.14960813941434e-05,4.9187390686711296e-05,-2.7540931114344858e-05,2.245825089630671e-05
-4.5364453399088234e-05,5.072492058388889e-05,-2.4489294446539134e-05,2.6718596927821636e-05
-5.20336652698461e-05,4.939274731441401e-05,-2.0818901248276234e-05,2.5956036552088335e-05
-5.95458950556349e-05,4.7410001570824534e-05,-1.8304854165762663e-05,2.1743095203419216e-05
-6.240160291781649e-05,4.501628427533433e-05,-1.8312186512048356e-05,1.7493921404820867e-05
-6.172760186018422e-05,4.0511680708732456e-05,-2.2827136490377598e-05,1.54245353769511e-05
-6.228957499843091e-05,3.56340897269547e-05,-2.8869393645436503e-05,1.709512434899807e-05
-6.247125566005707e-05,3.4324952139286324e-05,-3.2757048757048324e-05,2.1239096895442344e-05
-6.094400669098832e-05,3.903859396814369e-05,-3.139549880870618e-05,2.461369331285823e-05
-5.8029385400004685e-05,4.607385926647112e-05,-2.6296876967535354e-05,2.5367764465045184e-05
-5.460668762680143e-05,5.1921575504820794e-05,-2.345137545489706e-05,2.4393095372943208e-05
-5.1823240937665105e-05,5.1013932534260675e-05,-2.5553606974426657e-05,2.462042357365135e-05
-5.2471230446826667e-05,3.99949676648248e-05,-2.8412541723810136e-05,2.5787638151086867e-05
-5.354485256248154e-05,2.7493519155541435e-05,-2.7701602448360063e-05,2.518417932151351e-05
-5.5198208428919315e-05,2.0803825464099646e-05,-2.406015119049698e-05,2.2651922336081043e-05
-5.779232378699817e-05,2.094726551149506e-05,-2.4822429622872733e-05,2.1314424884621985e-05
-5.7396027841605246e-05,2.6936324502457865e-05,-2.7981330276816152e-05,2.0384604795253836e-05
-5.452785990200937e-05,3.4060023608617485e-05,-3.297339935670607e-05,1.9980338038294576e-05
-4.9505495553603396e-05,4.552393147605471e-05,-3.380364796612412e-05,2.0491472241701558e-05
-4.5306696847546846e-05,5.7970355555880815e-05,-3.010557520610746e-05,2.130934808519669e-05
-4.2381805542390794e-05,5.619333387585357e-05,-2.380000842094887e-05,2.2528354747919366e-05
-4.188745515421033e-05,4.566812276607379e-05,-1.7367961845593527e-05,2.5669700335129164e-05
-4.578303196467459e-05,3.9700596971670166e-05,-1.9122027879348025e-05,2.455318099237047e-05
-5.010381210013293e-05,3.920979725080542e-05,-2.2302971046883613e-05,2.2973856175667606e-05
-5.0160018872702494e-05,4.121903839404695e-05,-2.3471018721465953e-05,2.5063704015337862e-05
-5.001350291422568e-05,4.0172039007302374e-05,-2.3814329324522987e-05,2.8684569770121016e-05
-5.065157529315911e-05,3.3807391446316615e-05,-2.7166888685314916e-05,3.0144887205096893e-05
-5.005846105632372e-05,2.9148983230697922e-05,-2.9433105737552978e-05,2.7401509214541875e-05
-4.889503543381579e-05,3.134739745291881e-05,-2.8844464395660907e-05,2.3312732082558796e-05
-4.5845910790376365e-05,3.63003091479186e-05,-2.5630155505496077e-05,1.9633667761809193e-05
-4.266137693775818e-05,4.059369530295953e-05,-2.4020006094360724e-05,1.9530500139808282e-05
-4.400880789035e-05,4.191282278043218e-05,-2.7698801204678603e-05,2.2175359845277853e-05
-5.100529233459383e-05,3.7558180338237435e-05,-3.1593535823049024e-05,2.4378334273933433e-05
-5.532017530640587e-05,3.0216389859560877e-05,-3.172258220729418e-05,2.5810044462559745e-05
-5.256004078546539e-05,2.717605821089819e-05,-2.732828215812333e-05,2.7609674361883663e-05
-4.678592813434079e-05,2.9387774702627212e-05,-1.9419037926127203e-05,2.8283458959776908e-05
-4.295174949220382e-05,3.110918987658806e-05,-1.1362321856722701e-05,2.7870157282450236e-05
-4.1735940612852573e-05,2.86536287603667e-05,-8.308572432724759e-06,2.7318394131725654e-05
-4.315247861086391e-05,2.5242035917472094e-05,-9.561225851939525e-06,2.6321731638745405e-05
-4.3277999793644994e-05,2.361902079428546e-05,-1.860634802142158e-05,2.3163744117482565e-05
-4.240716589265503e-05,2.1667688997695222e-05,-3.0066275940043852e-05,2.0422288798727095e-05
-4.296085535315797e-05,1.9739763956749812e-05,-3.4918964956887066e-05,2.107162981701549e-05
-4.095988333574496e-05,1.7810267308959737e-05,-3.323781493236311e-05,2.2898999304743484e-05
-3.970993202528916e-05,1.6217334632528946e-05,-2.8247275622561574e-05,2.3704844352323562e-05
-4.531234299065545e-05,1.8034883396467194e-05,-2.494584805390332e-05,2.451588079566136e-05
-5.0720420404104516e-05,1.9378670913283713e-05,-2.5310095224995166e-05,2.6990397600457072e-05
-4.923691813019104e-05,1.9971785150119103e-05,-2.7517395210452378e-05,2.9727205401286483e-05
-4.5570111979031935e-05,2.1310454030754045e-05,-2.900881736422889e-05,3.1882129405857995e-05
-4.733290188596584e-05,1.9726352547877468e-05,-2.702034907997586e-05,3.185557579854503e-05
-5.268320455797948e-05,2.0423252863110974e-05,-2.3583816073369235e-05,2.902013511629775e-05
-5.6834051065379754e-05,2.5823126634350047e-05,-2.078764737234451e-05,2.7036161554860882e-05
-5.9093814343214035e-05,3.686633499455638e-05,-1.900704955914989e-05,2.621055318741128e-05
-5.651949322782457e-05,4.4518506911117584e-05,-1.9279454136267304e-05,2.889915049308911e-05
-5.112923463457264e-05,3.9722814108245075e-05,-1.733592762320768e-05,3.2750140235293657e-05
-4.8954341764329e-05,2.561762448749505e-05,-1.2418623555277009e-05,3.285465209046379e-05
-5.045454599894583e-05,1.3646115803567227e-05,-1.0365472917328589e-05,3.040981937374454e-05
-5.0999424274777994e-05,1.0325630682928022e-05,-1.528014945506584e-05,3.0103186873020604e-05
-4.968130451743491e-05,1.0915765415120404e-05,-2.3224296455737203e-05,3.0331011657835916e-05
-4.7360550524899736e-05,1.3479442714015022e-05,-3.0663602956337854e-05,3.165463567711413e-05
-4.5525219320552424e-05,1.4372838450071868e-05,-3.861277946271002e-05,3.372495120856911e-05
-4.371062823338434e-05,8.762085599300917e-06,-4.660188642446883e-05,3.4537817555246875e-05
-4.056786565342918e-05,-2.444313054184022e-07,-5.242629049462266e-05,3.4205564588773996e-05
-3.5484998079482466e-05,-2.9521615942940116e-06,-5.296445306157693e-05,3.2560368708800524e-05
-2.986571053043008e-05,1.7128460285675828e-06,-4.412872658576816e-05,3.069518061238341e-05
-2.85965834336821e-05,9.046204468177166e-06,-2.7440759367891587e-05,2.993096313730348e-05
-3.581659620977007e-05,1.9891893316525966e-05,-1.0394224773335736e-05,3.1530074920738116e-05
-4.485603858483955e-05,3.993747304775752e-05,3.5891079619432276e-07,3.1660671083955094e-05
-5.011423854739405e-05,6.7692126322072e-05,-1.5359795497715822e-06,2.9886572519899346e-05
-5.511847120942548e-05,8.759384945733473e-05,-1.3671471606357954e-05,2.5756189643288963e-05
-5.92360993323382e-05,8.168665954144672e-05,-2.279423461004626e-05,1.6271937056444585e-05
-5.988756311126053e-05,5.808392961625941e-05,-2.1609823306789622e-05,7.554369403806049e-06
-6.22251391177997e-05,3.76900534320157e-05,-1.9320223145768978e-05,6.3805741774558555e-06
-6.324077548924834e-05,3.786102752201259e-05,-2.540332752687391e-05,9.141158443526365e-06
-5.8931473176926374e-05,6.217959889909253e-05,-3.2526069844607264e-05,1.1709232239809353e-05
-5.95580531808082e-05,9.525084169581532e-05,-3.053872933378443e-05,1.266251001652563e-05
-6.598931213375181e-05,0.00011632196401478723,-2.1028474293416366e-05,1.5257161066983826e-05
-7.663713040528819e-05,0.00011468998127384111,-1.4642136193288025e-05,1.653696563153062e-05
-8.134077506838366e-05,9.198362386086956e-05,-1.63321692525642e-05,1.5906340195215307e-05
-7.681472925469279e-05,5.801713632536121e-05,-2.5045826987479813e-05,1.4930901670595631e-05
-6.999388278927654e-05,2.9027478376519866e-05,-3.5967270378023386e-05,1.6815132767078467e-05
-6.264144758461043e-05,8.117788638628554e-06,-3.793313953792676e-05,2.1137739167897962e-05
-5.833327668369748e-05,-4.609320512827253e-06,-3.047835525649134e-05,2.51919718721183e-05
-5.661544491886161e-05,-3.485541355985333e-06,-1.959732617251575e-05,2.760329152806662e-05
