-1.5292223906726576e-05,2.5755920432857238e-05,-3.0796334613114595e-05,1.934887404786423e-05
-9.823692380450666e-06,2.724557816691231e-05,-2.6470006559975445e-05,2.343943742744159e-05
-1.701930523267947e-05,2.723138459259644e-05,-2.469353421474807e-05,2.6217214326607063e-05
-2.5247089070035145e-05,2.1941939849057235e-05,-2.682795275177341e-05,2.6263962354278192e-05
-2.7161815523868427e-05,2.2278485630522482e-05,-2.9688253562198952e-05,2.743201366683934e-05
-3.0428793252212927e-05,2.914032847911585e-05,-2.93792018055683e-05,2.723022953432519e-05
-3.2013387681217864e-05,3.5562905395636335e-05,-2.595989099063445e-05,2.7662224965752102e-05
-3.446253322181292e-05,3.60626436304301e-05,-2.5458688469370827e-05,2.7890353521797806e-05
-4.0505590732209384e-05,3.4500739275244996e-05,-2.447055885568261e-05,2.5814133550738916e-05
-4.5424469135468826e-05,3.1608706194674596e-05,-2.3781070922268555e-05,2.3241034796228632e-05
-5.2978659368818626e-05,3.045423909497913e-05,-2.6779294785228558e-05,2.4323007892235182e-05
-6.166881939861923e-05,3.342416312079877e-05,-2.9962402550154366e-05,2.7446620151749812e-05
-6.73786416882649e-05,3.2449788704980165e-05,-2.9236300179036334e-05,2.757406036835164e-05
-6.808021134929731e-05,2.6174458980676718e-05,-2.7278627385385334e-05,2.5006693249451928e-05
-6.790771294618025e-05,2.1535046471399255e-05,-2.5696956072351895e-05,2.3634269382455386e-05
-6.683274841634557e-05,2.384884464845527e-05,-2.2610545784118585e-05,2.42206242546672e-05
-6.056595884729177e-05,3.022008058906067e-05,-1.9474948203423992e-05,2.6210875148535706e-05
-4.74922671855893e-05,3.579959593480453e-05,-2.0310855688876472e-05,2.9292827093740925e-05
-4.1124396375380456e-05,3.952012411900796e-05,-2.2497129975818098e-05,2.9124792490620166e-05
-5.027737279306166e-05,4.297615305404179e-05,-1.937740671564825e-05,2.4001645215321332e-05
-6.37846314930357e-05,4.549543882603757e-05,-1.363241517537972e-05,1.8461912986822426e-05
-6.541745096910745e-05,4.589738819049671e-05,-1.3967281120130792e-05,1.772913492459338e-05
-5.508834510692395e-05,4.2128282075282186e-05,-2.025359935942106e-05,1.9600616724346764e-05
-4.7817480663070455e-05,3.7562676880043e-05,-2.1722134988522157e-05,2.0505347492871806e-05
-5.65063237445429e-05,3.825547901215032e-05,-1.9279712432762608e-05,1.886009340523742e-05
-6.73471949994564e-05,4.381272810860537e-05,-1.9867022274411283e-05,1.69980812643189e-05
-6.821169517934322e-05,4.879702100879513e-05,-2.2877586161484942e-05,1.9404516933718696e-05
-6.406943430192769e-05,4.8906214942689985e-05,-2.7134698029840365e-05,2.0726180082419887e-05
-5.628600774798542e-05,4.267773329047486e-05,-2.7864676667377353e-05,1.915948996611405e-05
-5.279369361232966e-05,3.647134508355521e-05,-2.856992432498373e-05,2.075762859021779e-05
-5.486993177328259e-05,3.280656164861284e-05,-3.421258588787168e-05,2.439645140839275e-05
-5.9448018873808905e-05,3.0583269108319655e-05,-3.571131674107164e-05,2.808597491821274e-05
-6.295838102232665e-05,3.585808372008614e-05,-3.3785261621233076e-05,2.782427145575639e-05
-6.225366814760491e-05,4.236211680108681e-05,-3.275493872934021e-05,2.4730288714636117e-05
-6.193748413352296e-05,4.0821381844580173e-05,-3.2544117857469246e-05,2.466446858306881e-05
-6.23629821348004e-05,3.278636359027587e-05,-3.0965595215093344e-05,2.607526766951196e-05
-6.0490994655992836e-05,2.5580502551747486e-05,-2.6869724024436437e-05,2.6120716938748956e-05
-5.8278128562960774e-05,2.0222123566782102e-05,-2.388563734712079e-05,2.547798794694245e-05
-5.9305290051270276e-05,1.7021273379214108e-05,-2.3333850549533963e-05,2.7041704015573487e-05
-6.221309740794823e-05,1.6667469026288018e-05,-2.3665801563765854e-05,3.0361055905814283e-05
-6.586343806702644e-05,1.8522290702094324e-05,-2.4422153728664853e-05,3.186004687449895e-05
-6.915126868989319e-05,2.0968771423213184e-05,-2.5455485229031183e-05,3.2468240533489734e-05
-6.887669587740675e-05,1.9090059140580706e-05,-2.430312270007562e-05,3.319531970191747e-05
-6.40918588032946e-05,1.686470932327211e-05,-2.1354617274482735e-05,3.244577601435594e-05
-5.608066203421913e-05,2.0578918338287622e-05,-2.0841080186073668e-05,3.052004467463121e-05
-4.762558455695398e-05,2.5892097255564295e-05,-2.271227458550129e-05,3.0025421438040212e-05
-4.067694317200221e-05,2.474208304192871e-05,-2.3583490474266e-05,3.0359316951944493e-05
-3.531678157742135e-05,1.6706680980860256e-05,-2.4410372134298086e-05,2.8028038286720403e-05
-2.89972285827389e-05,5.91672551308875e-06,-2.6205181711702608e-05,2.6168561817030422e-05
-2.6153962608077563e-05,1.6861613403307274e-06,-2.5535409804433584e-05,2.6128507670364343e-05
-3.074193955399096e-05,8.872594662534539e-06,-2.2540662030223757e-05,2.436533395666629e-05
-3.693207690957934e-05,2.3825055905035697e-05,-2.177553869842086e-05,2.586138180049602e-05
-3.85766034014523e-05,3.661217851913534e-05,-2.1859177650185302e-05,2.7652669814415276e-05
-3.895084228133783e-05,4.3126667151227593e-05,-2.178709110012278e-05,2.5862062102532946e-05
-4.500049180933274e-05,4.579719097819179e-05,-2.271024277433753e-05,2.4112478058668785e-05
-5.230230817687698e-05,4.3052386899944395e-05,-2.4585715436842293e-05,2.2772210286348127e-05
-5.31237710674759e-05,4.291452205507085e-05,-2.4719663997530006e-05,2.3969774701981805e-05
-5.059631439507939e-05,4.895091842627153e-05,-2.358456185902469e-05,2.7565343771129847e-05
-5.137583502801135e-05,5.272182170301676e-05,-2.4268974812002853e-05,3.302706318208948e-05
-5.1550232456065714e-05,5.549652996705845e-05,-2.5028894015122205e-05,3.280263626947999e-05
-5.259406316326931e-05,5.8210527640767395e-05,-2.5401823222637177e-05,2.8195479899295606e-05
-5.317729301168583e-05,5.9288417105562985e-05,-2.5322098736069165e-05,2.428029074508231e-05
-4.9441350711276755e-05,5.870634413440712e-05,-2.5746310711838305e-05,2.3033609977574088e-05
-4.554406405077316e-05,5.289730688673444e-05,-2.6259996957378462e-05,2.503514406271279e-05
-4.4408061512513086e-05,4.6385222958633676e-05,-2.5579172870493494e-05,2.5763984012883157e-05
-4.7824047214817256e-05,4.352047835709527e-05,-2.4864941224223003e-05,2.5577628548489884e-05
-5.2084429626120254e-05,4.66212113678921e-05,-2.4474797100992873e-05,2.399648292339407e-05
-5.33390739292372e-05,5.184409747016616e-05,-2.453002889524214e-05,2.2719699700246565e-05
-4.972417082171887e-05,5.4061027185525745e-05,-2.559433960414026e-05,2.2462507331511006e-05
-4.50836269010324e-05,5.189423973206431e-05,-2.9968050512252375e-05,2.2512600480695255e-05
-4.608627568813972e-05,5.008789958083071e-05,-3.62879982276354e-05,2.2244434148888104e-05
-5.311287168296985e-05,4.869252734351903e-05,-3.98913944081869e-05,2.100069286825601e-05
-5.7205768825951964e-05,4.419725519255735e-05,-3.808629480772652e-05,1.9139673895551823e-05
-5.61999149795156e-05,3.626776742748916e-05,-3.338931128382683e-05,2.000335734919645e-05
-5.66168746445328e-05,2.7179357857676223e-05,-3.262959944549948e-05,2.5133129383902997e-05
-5.875715578440577e-05,2.3990709451027215e-05,-3.3485637686681e-05,3.140460830763914e-05
-5.7802608353085816e-05,2.741904063441325e-05,-3.074041160289198e-05,3.477169593679719e-05
-5.529124609893188e-05,3.090035170316696e-05,-2.7305744879413396e-05,3.2740612368797883e-05
-5.618472641799599e-05,2.8903770726174116e-05,-2.5803559765336104e-05,2.94931887765415e-05
-5.932312342338264e-05,2.6686353521654382e-05,-2.339126331207808e-05,3.0385992431547493e-05
-6.137530726846308e-05,2.7929627322009765e-05,-2.0171708456473425e-05,2.850434248102829e-05
-6.090433817007579e-05,2.4988064978970215e-05,-2.0966708689229563e-05,2.1001495042582974e-05
-5.0966100388905033e-05,2.3197926566354e-05,-2.3526126824435778e-05,1.4776387615711428e-05
-3.608699262258597e-05,3.023021054104902e-05,-2.797626621031668e-05,1.056975634128321e-05
-3.1201525416690856e-05,3.382380600669421e-05,-3.130904588033445e-05,9.174969818559475e-06
-3.2944957638392225e-05,3.35201621055603e-05,-2.852825855370611e-05,9.816651981964242e-06
-3.861536242766306e-05,3.6190784157952294e-05,-2.353253512410447e-05,1.364557374472497e-05
-4.86195131088607e-05,4.4007298129145056e-05,-1.8619268303154968e-05,1.676182000664994e-05
-5.815349140902981e-05,4.8843943659448996e-05,-1.5688896382926032e-05,1.7407737686880864e-05
-6.106366345193237e-05,4.4958866055822e-05,-1.512404196546413e-05,2.03670933842659e-05
-5.7923622080124915e-05,3.2134146749740466e-05,-1.682034599070903e-05,2.2063117285142653e-05
-5.585632970905863e-05,1.668024378886912e-05,-2.0219082216499373e-05,2.031428084592335e-05
-5.522679930436425e-05,8.83698885445483e-06,-2.1317875507520512e-05,1.994152262341231e-05
-5.2144710934953764e-05,1.026239351631375e-05,-1.998980042117182e-05,2.3292046535061672e-05
-4.830163379665464e-05,1.655959385971073e-05,-1.855913615145255e-05,2.6518957383814268e-05
-4.687587352236733e-05,2.348486304981634e-05,-1.7502241462352686e-05,2.6769797841552645e-05
-4.780206654686481e-05,2.802298331516795e-05,-1.701825749478303e-05,2.3428241547662765e-05
-5.019687159801833e-05,2.790330290736165e-05,-1.653517574595753e-05,2.0444049368961714e-05
-5.1364211685722694e-05,2.620966188260354e-05,-1.5940564480843022e-05,2.104406121361535e-05
-5.078508911537938e-05,2.5934450604836456e-05,-1.5149938917602412e-05,2.335429235245101e-05
-4.725029430119321e-05,2.6580288249533623e-05,-1.466658341087168e-05,2.3606122340424918e-05
-3.7966448871884495e-05,2.512311220925767e-05,-1.5009349226602353e-05,2.1571013348875567e-05
-2.6286346837878227e-05,1.9008703020517714e-05,-1.4870041923131794e-05,2.074201802315656e-05
-2.2401696696761064e-05,9.883618986350484e-06,-1.3555053556046914e-05,2.3197984774014913e-05
-2.7315361876389943e-05,6.255301286728354e-06,-1.4304998330771923e-05,2.5316297978861257e-05
-3.561919947969727e-05,7.956783520057797e-06,-1.880029776657466e-05,2.573098026914522e-05
-4.547620483208448e-05,1.1737340173567645e-05,-2.3654305550735444e-05,2.5821937015280128e-05
-4.8927318857749924e-05,1.2379675354168285e-05,-2.8049236789229326e-05,2.400104858679697e-05
-4.559201988740824e-05,5.234252512309467e-06,-3.009006286447402e-05,2.0533674614853226e-05
-4.45336481789127e-05,-2.4802915277177817e-07,-2.9151964554330334e-05,2.0363655494293198e-05
-4.583205736707896e-05,2.4176033548428677e-06,-2.8734228180837817e-05,2.6748397431219928e-05
-4.704919410869479e-05,5.332404725777451e-06,-3.2509004086023197e-05,3.212521187379025e-05
-4.9137117457576096e-05,8.172234629455488e-06,-3.864206519210711e-05,3.2017327612265944e-05
-5.2844712627120316e-05,1.8920993170468137e-05,-3.891316373483278e-05,2.598558239697013e-05
-5.7390414440305904e-05,3.276460847700946e-05,-3.560848199413158e-05,2.253083039249759e-05
-6.0991682403255254e-05,3.744882269529626e-05,-3.384897354408167e-05,2.4456372557324357e-05
-6.501087045762688e-05,3.544004721334204e-05,-3.604056473704986e-05,2.469549326633569e-05
-6.732776819262654e-05,3.2876796467462555e-05,-3.867148552672006e-05,2.2243844796321355e-05
-6.593263969989493e-05,3.074252890655771e-05,-4.069939677719958e-05,1.9230685211368836e-05
-6.548777309944853e-05,3.499332524370402e-05,-4.152054316364229e-05,1.939834692166187e-05
-6.86884013703093e-05,4.6131528506521136e-05,-3.9780126826372e-05,2.2172846001922153e-05
-7.122393435565755e-05,5.4895841458346695e-05,-3.521002872730605e-05,2.544681956351269e-05
-6.985665822867304e-05,5.691011392627843e-05,-2.9255850677145645e-05,2.564647547842469e-05
-6.9416593760252e-05,5.104565207147971e-05,-2.739477167779114e-05,2.4057906557573006e-05
-7.237692625494674e-05,4.0073129639495164e-05,-2.954865703941323e-05,2.3619555577170104e-05
-7.43777200113982e-05,3.4425822377670556e-05,-3.244480103603564e-05,2.509816476958804e-05
-7.068758714012802e-05,3.756365549634211e-05,-3.337260568514466e-05,2.7049356503994204e-05
-6.507313810288906e-05,4.0356680983677506e-05,-3.2664305763319135e-05,2.7688212867360562e-05
-6.1034439568175e-05,3.868226849590428e-05,-3.0775081540923566e-05,2.5414528863620944e-05
-5.763078297604807e-05,3.721362736541778e-05,-3.1552077416563407e-05,2.3913280529086478e-05
-5.213026815908961e-05,3.289146479801275e-05,-3.362427742104046e-05,2.5068231479963288e-05
-4.5362463424680755e-05,2.786354161798954e-05,-3.397705586394295e-05,2.5999652280006558e-05
-3.98862139263656e-05,2.72754805337172e-05,-2.951255919469986e-05,2.5560444555594586e-05
-4.018014806206338e-05,2.8292884962866083e-05,-2.111531466653105e-05,2.1213974832789972e-05
-4.6914006816223264e-05,3.091703183599748e-05,-1.587652150192298e-05,1.6104326277854852e-05
-5.11447069584392e-05,3.378206747584045e-05,-1.5404999430757016e-05,1.492456067353487e-05
-4.794432607013732e-05,3.4557593608042225e-05,-1.8516873751650564e-05,1.7471824321546592e-05
-4.131420064368285e-05,3.537243537721224e-05,-2.1381349142757244e-05,2.1157264200155623e-05
-4.227069075568579e-05,3.287580329924822e-05,-2.3703563783783466e-05,2.5148081476800144e-05
-5.0164257118012756e-05,2.7068706913269125e-05,-2.77798008028185e-05,2.6002313461503945e-05
-5.5887005146360025e-05,2.709589352889452e-05,-2.8593820388778113e-05,2.478110218362417e-05
-5.5771364714019e-05,3.083033152506687e-05,-2.7133108233101666e-05,2.362687337154057e-05
-5.51349476154428e-05,3.019682117155753e-05,-2.815713014570065e-05,2.221476097474806e-05
-5.609766594716348e-05,2.8657790608122014e-05,-2.9795244699926116e-05,2.2437374354922213e-05
-5.3126703278394416e-05,2.7471362045616843e-05,-2.8998949346714653e-05,2.075616612273734e-05
-4.8322832299163565e-05,2.313364348083269e-05,-2.8026177460560575e-05,1.6814014088595286e-05
-4.9810718337539583e-05,2.0778539692400955e-05,-2.5959077902371064e-05,1.649641308176797e-05
-5.445814167615026e-05,2.2791698938817717e-05,-2.495798617019318e-05,2.0997385945520364e-05
-5.493476419360377e-05,2.521905116736889e-05,-2.689345092221629e-05,2.6006227926700376e-05
-5.1235794671811163e-05,2.468507955200039e-05,-2.874529491236899e-05,2.6455787519807927e-05
-4.849789911531843e-05,2.0998377294745296e-05,-2.786060758808162e-05,2.3556422092951834e-05
-4.713754969998263e-05,1.9004080968443304e-05,-2.449417115713004e-05,2.2299162083072588e-05
-4.5777836930938065e-05,2.2352633095579222e-05,-2.1623305656248704e-05,2.448472696414683e-05
-4.584168709698133e-05,2.9826253012288362e-05,-1.8949074728880078e-05,2.7574893465498462e-05
-4.753553002956323e-05,3.504021151456982e-05,-1.6935549865593202e-05,2.7771109671448357e-05
-4.9714584747562185e-05,3.5814875445794314e-05,-1.5188968973234296e-05,2.6547042580205016e-05
-4.9894151743501425e-05,3.50063965015579e-05,-1.5552981494693086e-05,2.8323931474005803e-05
-4.919817001791671e-05,3.379531335667707e-05,-1.8142703993362375e-05,3.2592128263786435e-05
-4.7646306484239176e-05,3.268955333624035e-05,-2.1329713490558788e-05,3.403373193577863e-05
-4.469469058676623e-05,3.3094289392465726e-05,-2.4002811187529005e-05,2.9756527510471642e-05
-4.2051866330439225e-05,3.27113812090829e-05,-2.7172212867299095e-05,2.414026494079735e-05
-4.251232530805282e-05,2.837881402228959e-05,-3.063496114918962e-05,2.3575972591061145e-05
-4.2734543967526406e-05,2.8287679015193135e-05,-3.196126999682747e-05,2.1179308532737195e-05
-3.8956088246777654e-05,2.9081644242978655e-05,-3.0171382604748942e-05,1.6017771486076526e-05
-3.811232454609126e-05,2.703033715079073e-05,-2.75757847703062e-05,1.7065400243154727e-05
-4.28233397542499e-05,2.8177120839245617e-05,-2.4253862648038194e-05,2.303419569216203e-05
-4.672122668125667e-05,2.8368100174702704e-05,-2.4000388293643482e-05,2.716900416999124e-05
-4.7640027332818136e-05,2.6969895770889707e-05,-2.7122894607600756e-05,2.599684194137808e-05
-4.580536551657133e-05,2.3736709408694878e-05,-2.9218812414910644e-05,2.4342540200450458e-05
-4.0659950172994286e-05,2.2988195269135758e-05,-3.1688254239270464e-05,2.3361661078524776e-05
-3.268707951065153e-05,2.5063429347937927e-05,-3.1406048947246745e-05,2.2750125935999677e-05
-2.5442272090003826e-05,2.6036155759356916e-05,-2.792226950987242e-05,2.3631640942767262e-05
-1.9048700778512284e-05,2.5097941033891402e-05,-2.6698467991081998e-05,2.3844630050007254e-05
-1.4946434021112509e-05,2.686006700969301e-05,-2.8597529308171943e-05,2.1902367734583095e-05
-1.526678715890739e-05,3.1226092687575147e-05,-2.8603399186977185e-05,2.0665640477091074e-05
-2.1409974579000846e-05,3.359240508871153e-05,-2.6582383725326508e-05,2.122409932781011e-05
-2.8275760996621102e-05,3.5568886232795194e-05,-2.614446566440165e-05,2.4204759029089473e-05
-3.565452789189294e-05,3.802432183874771e-05,-2.6748544769361615e-05,2.816627784341108e-05
-4.470480780582875e-05,4.0143353544408455e-05,-2.626085733936634e-05,3.0188251912477426e-05
-5.114822124596685e-05,4.105722837266512e-05,-2.3748187231831253e-05,2.9403550797724165e-05
-5.3398613090394065e-05,4.150662061874755e-05,-2.3010406948742457e-05,2.494797263352666e-05
-5.3168423619354144e-05,4.0670620364835486e-05,-2.5930621632141992e-05,2.1436573661048897e-05
-5.316985334502533e-05,3.9671202102908865e-05,-2.672725895536132e-05,2.3156781026045792e-05
-5.4672156693413854e-05,3.799275145865977e-05,-2.434480302326847e-05,2.8419892259989865e-05
-5.762687942478806e-05,3.755096986424178e-05,-2.3831478756619617e-05,2.9540487958001904e-05
-6.033639147062786e-05,4.1867508116411045e-05,-2.7041349312639795e-05,2.663853592821397e-05
-6.0395614127628505e-05,4.5825512643205e-05,-2.91747237497475e-05,2.5883875423460267e-05
-5.917611997574568e-05,4.3224423279752955e-05,-2.7384674467612058e-05,2.44365419348469e-05
-5.962646537227556e-05,3.86891515518073e-05,-2.4209915864048526e-05,2.300496089446824e-05
-5.637190770357847e-05,4.0217171772383153e-05,-1.864282603492029e-05,2.387230961176101e-05
-5.5795841035433114e-05,4.903561057290062e-05,-1.9616945792222396e-05,2.7951353331445716e-05
-5.628774670185521e-05,5.7448054576525465e-05,-2.484726246620994e-05,2.9992361305630766e-05
-5.689180761692114e-05,5.6131993915187195e-05,-2.4603165002190508e-05,2.7588535886025056e-05
-5.940064511378296e-05,5.15379651915282e-05,-2.3272503312909976e-05,2.743831828411203e-05
-5.9713271184591576e-05,5.378503192332573e-05,-2.152962588297669e-05,2.611222953419201e-05
-6.000850407872349e-05,5.280064942780882e-05,-2.113085974997375e-05,2.228096673206892e-05
-6.0939531977055594e-05,4.846981755690649e-05,-2.244405732199084e-05,1.7174486856674775e-05
-6.130022666184232e-05,4.532554157776758e-05,-2.749414306890685e-05,1.5779854948050343e-05
-5.968762707198039e-05,4.348828224465251e-05,-3.064042903133668e-05,1.6946269170148298e-05
-5.36612315045204e-05,3.9710703276796266e-05,-2.6383029762655497e-05,1.782111394277308e-05
-4.5065597078064457e-05,3.47514396707993e-05,-2.110473724314943e-05,1.7619751815800555e-05
-3.9265909435926005e-05,3.071691753575578e-05,-2.1484669559868053e-05,1.8069378711516038e-05
-3.6427165468921885e-05,2.7543412215891294e-05,-2.7351175958756357e-05,1.9591096133808605e-05
-3.7069177778903395e-05,2.7464890081319027e-05,-3.03057640849147e-05,2.013102130149491e-05
-3.968094824813306e-05,2.685358776943758e-05,-2.8543729058583267e-05,2.040620347543154e-05
-4.265753523213789e-05,2.3117809178074822e-05,-2.832579230016563e-05,2.25407875404926e-05
-4.477801121538505e-05,2.1234032828942873e-05,-3.0775470804655924e-05,2.6759387765196152e-05
-4.6119257604004815e-05,2.531208701839205e-05,-3.025152545887977e-05,2.9082342734909616e-05
-4.7321573219960555e-05,2.6944970159092918e-05,-2.5978473786381073e-05,2.8409904189174995e-05
-4.5445758587447926e-05,2.4643906726851128e-05,-2.24354698730167e-05,2.7382535336073488e-05
-4.254082159604877e-05,2.43987851717975e-05,-2.2171796445036307e-05,2.865976966859307e-05
-4.4177933887112886e-05,2.7854794097947888e-05,-2.4223711079685017e-05,2.9144104701117612e-05
-4.932760202791542e-05,2.8999858841416426e-05,-2.6905996492132545e-05,2.934857184300199e-05
-5.05427124153357e-05,2.972231595776975e-05,-2.666829459485598e-05,2.98813156405231e-05
-4.624415669240989e-05,3.23464410030283e-05,-2.5293185899499804e-05,3.0960127332946286e-05
-4.514112151809968e-05,3.337123052915558e-05,-2.3827722543501295e-05,2.8321406716713682e-05
-4.834974970435724e-05,3.2258176361210644e-05,-2.293506076966878e-05,2.0583689547493123e-05
-5.502946441993117e-05,3.302676122984849e-05,-2.4457578547298908e-05,1.7209426005138084e-05
-5.5875098041724414e-05,3.5503526305546984e-05,-2.4770361051196232e-05,1.960805275302846e-05
-5.11149009980727e-05,3.8113717891974375e-05,-2.436009526718408e-05,2.0320068870205432e-05
-5.423012771643698e-05,4.0443381294608116e-05,-2.4335449779755436e-05,1.759328915795777e-05
-6.223998934729025e-05,4.080514554516412e-05,-2.6932431865134276e-05,1.6550173313589767e-05
-6.633635348407552e-05,3.963692142860964e-05,-3.206359542673454e-05,1.9698252799571492e-05
-6.537029548780993e-05,3.670754449558444e-05,-3.4127384424209595e-05,2.1480911527760327e-05
-6.504816701635718e-05,3.2833177101565525e-05,-3.170795753248967e-05,2.2883121346239932e-05
-6.430099165299907e-05,3.0207329473341815e-05,-3.0349099688464776e-05,2.1786032448289916e-05
-6.308536103460938e-05,2.7336329367244616e-05,-3.094235580647364e-05,1.839452306739986e-05
-5.79452098463662e-05,2.3087579393177293e-05,-3.123088026768528e-05,1.71048359334236e-05
-5.222906838753261e-05,1.8213620933238417e-05,-3.1830491934670135e-05,1.8766357243293896e-05
-5.025785867474042e-05,1.6368538126698695e-05,-3.409458076930605e-05,1.803549639589619e-05
-4.913400698569603e-05,1.7402899175067432e-05,-3.4746455639833584e-05,1.4662127796327695e-05
-4.631016417988576e-05,1.661900751059875e-05,-3.334331267978996e-05,1.4054461644263938e-05
-3.9943948650034145e-05,1.4527806342812255e-05,-3.231547088944353e-05,1.4953403479012195e-05
-3.241231388528831e-05,1.3910931556893047e-05,-2.9567994715762325e-05,1.4393463061423972e-05
-3.089656456722878e-05,1.3319285244506318e-05,-2.462430711602792e-05,1.4206983905751258e-05
-3.8131493056425825e-05,1.0766330888145603e-05,-2.064946420432534e-05,1.6471232811454684e-05
-4.439481199369766e-05,1.1771370736823883e-05,-2.0023499018861912e-05,1.8712251403485425e-05
-4.1764335037441924e-05,1.5094041373231448e-05,-2.0672659957199357e-05,2.063176543742884e-05
-3.056458808714524e-05,1.6591671737842262e-05,-2.0470757590373978e-05,2.1221188944764435e-05
-2.0144212612649426e-05,2.1751886379206553e-05,-2.012156619457528e-05,2.2651245672022924e-05
-2.2640251700067893e-05,3.522600309224799e-05,-2.2233765776036307e-05,2.6056557544507086e-05
-3.599896444939077e-05,5.158935164217837e-05,-2.2559410354006104e-05,2.9214323149062693e-05
-4.5833789044991136e-05,5.8650646678870544e-05,-2.025588764809072e-05,2.9198903575888835e-05
-5.4783886298537254e-05,5.4765310778748244e-05,-1.9752851585508324e-05,2.5764655219973065e-05
-6.17807891103439e-05,4.9907848733710125e-05,-2.3726392100797966e-05,2.0811474314541556e-05
-5.815992335556075e-05,4.799625457962975e-05,-2.871230390155688e-05,1.9827706637443043e-05
-4.962075036019087e-05,4.810566679225303e-05,-2.92865552182775e-05,2.163116732845083e-05
-4.347320646047592e-05,4.694757080869749e-05,-2.6929634259431623e-05,2.355710239498876e-05
-4.564957998809405e-05,4.450439155334607e-05,-2.5768686100491323e-05,2.570506876509171e-05
-5.341549695003778e-05,3.833475420833565e-05,-2.6417308617965318e-05,2.849336487997789e-05
-5.7331293646711856e-05,3.429028220125474e-05,-2.6893152607954107e-05,3.071971150347963e-05
-6.011742880218662e-05,3.6525587347568944e-05,-2.6455041734152474e-05,3.2657000701874495e-05
-6.539563037222251e-05,3.679213841678575e-05,-2.305904490640387e-05,3.286170613137074e-05
-6.753016350558028e-05,3.0788905860390514e-05,-1.9085873645963147e-05,3.0709572456544265e-05
-6.447902705986053e-05,2.533045335439965e-05,-1.931106817210093e-05,2.747689541138243e-05
-6.246529665077105e-05,2.6374978915555403e-05,-2.184294498874806e-05,2.4056043912423775e-05
-6.168235995573923e-05,3.2732368708821014e-05,-2.1120813471497968e-05,2.0251811292837374e-05
-5.828587745781988e-05,4.192871710984036e-05,-1.909041020553559e-05,1.8745518900686875e-05
-5.4046591685619205e-05,4.589746458805166e-05,-1.8713435565587133e-05,2.153110835934058e-05
-5.535740274353884e-05,4.2909221519948915e-05,-2.004931593546644e-05,2.4677889086888172e-05
-6.114682764746249e-05,3.828568151220679e-05,-2.345199573028367e-05,2.6087695005116984e-05
-6.235597538761795e-05,3.655715045169927e-05,-2.6807594622368924e-05,2.4471051801810972e-05
-5.994177990942262e-05,3.448340794420801e-05,-2.6048635845654644e-05,2.1917287085670978e-05
-6.207268597790971e-05,3.234641917515546e-05,-2.4273567760246806e-05,2.003315785259474e-05
-6.909575313329697e-05,3.226747503504157e-05,-2.6727557269623503e-05,2.0175031750113703e-05
-7.532227755291387e-05,3.535749783623032e-05,-3.157134779030457e-05,1.9910867194994353e-05
-7.310354703804478e-05,4.040948624606244e-05,-3.5332912375452e-05,2.1357711375458166e-05
-6.503982149297372e-05,4.489154162001796e-05,-3.446853952482343e-05,2.4971162929432467e-05
-6.076773934182711e-05,4.7937854105839506e-05,-3.1215236958814785e-05,2.488819882273674e-05
-5.7639281294541433e-05,4.744005491374992e-05,-2.8103926524636336e-05,2.2612746761296876e-05
-5.662783587467857e-05,4.293426900403574e-05,-2.5361614461871795e-05,2.1245434254524298e-05
-5.4888234444661066e-05,3.512459807097912e-05,-2.1425425074994564e-05,2.576294900791254e-05
-5.669978418154642e-05,3.245316111133434e-05,-1.5935229384922422e-05,3.07651971525047e-05
-5.964748561382294e-05,3.405640018172562e-05,-1.328924554400146e-05,2.7376423531677574e-05
-5.684861389454454e-05,2.8587608539965004e-05,-1.412498841091292e-05,2.2355285182129592e-05
-5.433995102066547e-05,2.0288514861022122e-05,-1.6139232684508897e-05,2.02190440177219e-05
-5.1341143262106925e-05,1.9282691937405616e-05,-1.9356351913302206e-05,2.092306203849148e-05
-4.773714317707345e-05,2.293616853421554e-05,-2.444437450321857e-05,2.0702682377304882e-05
-4.3512918637134135e-05,2.4220120394602418e-05,-2.9553337299148552e-05,1.903538577607833e-05
-3.9845763240009546e-05,2.0648629288189113e-05,-2.8766673494828865e-05,1.8633329091244377e-05
-3.560615368769504e-05,1.5849675037316047e-05,-2.360459984629415e-05,2.1022933651693165e-05
-3.46037995768711e-05,1.2535902897070628e-05,-2.2354743123287335e-05,2.3366594177787192e-05
-3.718500374816358e-05,1.1884520972671453e-05,-2.527173091948498e-05,2.3364311346085742e-05
-4.0595266909804195e-05,1.3925189705332741e-05,-2.7342075554770418e-05,2.1164518329896964e-05
-4.300813452573493e-05,1.8643142539076507e-05,-2.7384894565329887e-05,1.8497874407330528e-05
-4.3151569116162136e-05,2.1986699721310288e-05,-2.6052832254208624e-05,1.7683330952422693e-05
-4.301692024455406e-05,1.7535638107801788e-05,-2.3420450816047378e-05,1.9308716218802147e-05
-4.6136621676851064e-05,1.1755667401303072e-05,-2.2058164176996797e-05,2.1566174837062135e-05
-4.977752541890368e-05,1.4436669516726397e-05,-2.2725876988261007e-05,2.2620006348006427e-05
-4.958765202900395e-05,2.2313781300908886e-05,-2.3999444238143042e-05,2.3018230422167107e-05
-5.09674173372332e-05,2.9075687052682042e-05,-2.5314802769571543e-05,2.2432317564380355e-05
-5.5073243856895715e-05,3.268738873885013e-05,-2.5308580006822012e-05,2.300502274010796e-05
-5.819928628625348e-05,3.350031693116762e-05,-2.554493403295055e-05,2.681622027012054e-05
-5.905437137698755e-05,3.4759188565658405e-05,-2.825898081937339e-05,3.051254498132039e-05
-5.922566197114065e-05,3.259101868025027e-05,-2.9945827918709256e-05,2.8235810532351024e-05
-5.67988317925483e-05,2.8519842089735903e-05,-2.7956584744970314e-05,2.2439386157202534e-05
-4.981699385098182e-05,2.667396802280564e-05,-2.4666947865625843e-05,1.910549144668039e-05
-4.430613262229599e-05,2.466787918820046e-05,-2.5801396986935288e-05,2.174366636609193e-05
-4.376092692837119e-05,2.2708029064233415e-05,-2.678769305930473e-05,2.5547520635882393e-05
-4.489724233280867e-05,2.4510067305527627e-05,-2.6548384994384833e-05,2.4109574951580726e-05
-4.7079087380552664e-05,2.554333332227543e-05,-2.7087809939985164e-05,2.2133166567073204e-05
-4.831418482353911e-05,2.1449144696816802e-05,-2.4464425223413855e-05,2.1341042156564072e-05
-4.7138892114162445e-05,2.267606760142371e-05,-2.443878838676028e-05,1.7762080460670404e-05
-4.474082379601896e-05,3.0235112717491575e-05,-2.7907575713470578e-05,1.4231522072805092e-05
-4.374045965960249e-05,3.54948642780073e-05,-3.189135168213397e-05,1.2735755262838211e-05
-3.9977185224415734e-05,3.6173008993500844e-05,-3.293867121101357e-05,1.5476924090762623e-05
-3.776552330236882e-05,3.3982803870458156e-05,-3.243748506065458e-05,2.0112949641770683e-05
-3.9896414818940684e-05,3.5728913644561544e-05,-3.3394393540220335e-05,2.3479324227082543e-05
-4.258984336047433e-05,4.306835398892872e-05,-3.3844153222162277e-05,2.5204393750755116e-05
-4.8863010306376964e-05,5.125503594172187e-05,-3.124671638943255e-05,2.7756430426961742e-05
-5.756409154855646e-05,5.970273559796624e-05,-2.4558989025535993e-05,3.080158057855442e-05
-6.045815462130122e-05,6.402601866284385e-05,-1.8999136955244467e-05,3.212178489775397e-05
-5.454795973491855e-05,6.0741425841115415e-05,-1.7848682546173222e-05,3.272674439358525e-05
-4.63135693280492e-05,5.2200161007931456e-05,-2.1217392713879235e-05,3.343681964906864e-05
-4.094103496754542e-05,4.572105171973817e-05,-2.5622659450164065e-05,3.456275226199068e-05
-4.090720176463947e-05,4.340055966167711e-05,-2.611314266687259e-05,3.381829083082266e-05
-4.4472621084423736e-05,4.087418710696511e-05,-2.205552846135106e-05,3.2039566576713696e-05
-4.9685659178067e-05,3.496136923786253e-05,-1.8830029148375615e-05,3.1462506740354e-05
-5.38580134161748e-05,2.4717021005926654e-05,-2.0915405912091956e-05,2.9871345759602264e-05
-5.3403942729346454e-05,1.6595397028140724e-05,-2.4595803552074358e-05,2.574499558249954e-05
-4.61337149317842e-05,1.62531177920755e-05,-2.535626117605716e-05,2.414107984805014e-05
-3.6178622394800186e-05,2.046375084319152e-05,-2.45022038143361e-05,2.6216050173388794e-05
-3.111605838057585e-05,2.1171028492972255e-05,-2.3155678718467243e-05,2.9203556550783105e-05
-3.0681429052492604e-05,1.7398946511093527e-05,-2.2226347937248647e-05,3.1080100598046556e-05
-3.503417246975005e-05,1.716004408081062e-05,-2.181660420319531e-05,2.9327618904062547e-05
-4.164072379353456e-05,2.2416610590880737e-05,-2.5410667149117216e-05,2.9038224965916015e-05
-4.2558254790492356e-05,3.1290051992982626e-05,-2.9876800908823498e-05,3.2328702218364924e-05
-4.5442771806847304e-05,3.94252419937402e-05,-2.9689716029679403e-05,3.2550386094953865e-05
-4.912692747893743e-05,4.273568993085064e-05,-2.973604205180891e-05,2.9382066713878885e-05
-5.012033579987474e-05,4.6203982492443174e-05,-3.088121229666285e-05,2.6211691874777898e-05
-4.708953565568663e-05,5.0228478357894346e-05,-3.0369434171007015e-05,2.6403102310723625e-05
-4.534710387815721e-05,5.186387352296151e-05,-2.8478643798734993e-05,2.4786802896414883e-05
-5.0810413085855544e-05,5.402290844358504e-05,-2.7656815291265957e-05,2.511617094569374e-05
-5.472097109304741e-05,5.74772602703888e-05,-2.8090395062463358e-05,2.813573337334674e-05
-5.4174310207599774e-05,5.509985567186959e-05,-2.7492287699715234e-05,2.7656451493385248e-05
-5.325140955392271e-05,4.713630914920941e-05,-2.371583650528919e-05,2.6895331757259555e-05
-5.417467764345929e-05,4.181706754025072e-05,-2.193902400904335e-05,2.6840512873604894e-05
-5.4095387895358726e-05,4.230191552778706e-05,-2.6562771381577477e-05,2.5216213543899357e-05
-5.3905576351098716e-05,4.229548358125612e-05,-3.3093227102654055e-05,2.2369969883584417e-05
-5.313481960911304e-05,3.6585181078407913e-05,-3.5646717151394114e-05,2.1266874682623893e-05
-5.5958429584279656e-05,2.9059379812679254e-05,-3.5279263101983815e-05,2.078940815408714e-05
-6.422240403480828e-05,2.5132203518296592e-05,-3.532991831889376e-05,1.8256640032632276e-05
-7.477169128833339e-05,2.4709968784009106e-05,-3.520504105836153e-05,1.5861805877648294e-05
-8.178449934348464e-05,2.4894163288990967e-05,-3.3889475162141025e-05,1.568393963680137e-05
-8.235016139224172e-05,2.5275230655097403e-05,-3.275650306022726e-05,1.3874847354600206e-05
-7.745084440102801e-05,2.2560825527762063e-05,-3.3083233574870974e-05,1.1742685273929965e-05
-6.848467455711216e-05,1.5664407328586094e-05,-3.3264986996073276e-05,1.3703385775443166e-05
-5.7994609960587695e-05,1.330694885837147e-05,-3.484481931081973e-05,2.1868439944228157e-05
-5.124592280481011e-05,2.194309672631789e-05,-3.838439079117961e-05,2.735874841164332e-05
-4.313015233492479e-05,3.046069832635112e-05,-3.824507803074084e-05,2.3050562958815135e-05
-2.661017242644448e-05,3.094452040386386e-05,-3.0800227250438184e-05,1.7021528037730604e-05
-2.1089615984237753e-05,3.283457044744864e-05,-2.4215789380832575e-05,1.6870484614628367e-05
-3.0172030164976604e-05,3.9110334910219535e-05,-2.4122353352140635e-05,2.0649931684602052e-05
-3.682839451357722e-05,4.093817187822424e-05,-2.3422089725499973e-05,2.3020977096166462e-05
-3.955991633119993e-05,3.928914884454571e-05,-2.1988907974446192e-05,2.1605586880468763e-05
-4.222981442580931e-05,3.744456989807077e-05,-2.3299531676457264e-05,1.706911643850617e-05
-4.407872256706469e-05,3.6042900319444016e-05,-2.398543438175693e-05,1.3133829270373099e-05
-4.3604435632005334e-05,3.8042664527893066e-05,-2.0365157979540527e-05,1.3768791177426465e-05
-4.3262913095531985e-05,3.7732843338744715e-05,-1.7935406503966078e-05,1.604821954970248e-05
-4.516875560511835e-05,3.395781459403224e-05,-2.0358898837002926e-05,1.538800097478088e-05
-4.6984769142000005e-05,2.7908137781196274e-05,-2.1871039280085824e-05,1.5279263607226312e-05
-4.875260128756054e-05,2.2351550796884112e-05,-2.069834590656683e-05,1.89708880498074e-05
-5.077617970528081e-05,1.89444690477103e-05,-1.961464477062691e-05,2.2173766410560347e-05
-4.8455538490088657e-05,1.615227483853232e-05,-1.8690418073674664e-05,2.350062277400866e-05
-4.174263449385762e-05,1.373118175251875e-05,-1.687396434135735e-05,2.6211033400613815e-05
-3.538543023751117e-05,1.2024723218928557e-05,-1.788695590221323e-05,2.8893988201161847e-05
-3.270580054959282e-05,8.856418389768805e-06,-2.4145341740222648e-05,2.7437028620624915e-05
-3.440394357312471e-05,4.4126131797384005e-06,-3.0913157388567924e-05,2.5420720703550614e-05
-3.690046651172452e-05,4.737033577839611e-06,-3.216492768842727e-05,2.3900412998045795e-05
-3.627738624345511e-05,8.699257705302443e-06,-2.8505561203928664e-05,2.0942954506608658e-05
-3.588146500987932e-05,1.1468178854556754e-05,-2.3986287487787195e-05,2.1098481738590635e-05
-3.969211320509203e-05,1.5009454727987759e-05,-2.2156544218887575e-05,2.6215951947961003e-05
-4.3031122913816944e-05,1.98107045434881e-05,-2.3794320441083983e-05,3.185903551639058e-05
-4.388186425785534e-05,2.08430974453222e-05,-2.6856159820454195e-05,3.627184923971072e-05
-5.012434485252015e-05,2.302749089722056e-05,-2.6609692213241942e-05,4.068294583703391e-05
-6.180913624120876e-05,2.828517790476326e-05,-2.5130531867034733e-05,3.9368198486045e-05
-6.820874841650948e-05,3.088405719609e-05,-2.5666418878245167e-05,3.4886117646237835e-05
-6.434299575630575e-05,3.307289080112241e-05,-2.725693047977984e-05,3.336491863592528e-05
-5.465371941681951e-05,3.9729304262436926e-05,-2.689179927983787e-05,3.0836301448289305e-05
-5.462730405270122e-05,4.435647133504972e-05,-2.289281110279262e-05,3.2506541174370795e-05
-6.716081406921148e-05,4.738883944810368e-05,-2.2557855118066072e-05,3.934193591703661e-05
-8.16542815300636e-05,5.032739863963798e-05,-2.278152715007309e-05,4.234889638610184e-05
-8.583089947933331e-05,5.2656152547569945e-05,-2.105735802615527e-05,3.821770951617509e-05
-8.00617563072592e-05,5.12548467668239e-05,-2.342751031392254e-05,3.0950744985602796e-05
-7.220625411719084e-05,4.288870331947692e-05,-2.6750489269034006e-05,2.7294299798086286e-05
-6.634293094975874e-05,3.414258026168682e-05,-2.901213701989036e-05,2.6031400921056047e-05
-6.56179545330815e-05,2.8562324587255716e-05,-3.323570126667619e-05,2.3843764211051166e-05
-6.498731090687215e-05,2.510469676053617e-05,-3.72936665371526e-05,2.137885348929558e-05
-6.335963553283364e-05,2.065000262518879e-05,-3.7520916521316394e-05,1.943654569913633e-05
-5.8658664784161374e-05,1.8115324564860202e-05,-3.5014523746212944e-05,1.7501743059256114e-05
-5.131420402904041e-05,2.0663193936343305e-05,-3.1648847652832046e-05,1.879035698948428e-05
-4.646938032237813e-05,2.430117820040323e-05,-2.8938424293301068e-05,2.073467658192385e-05
-4.8899022658588365e-05,2.3304812202695757e-05,-2.8900116376462393e-05,1.9650347894639708e-05
-5.736631646868773e-05,2.0577601389959455e-05,-3.0355433409567922e-05,1.5974575944710523e-05
-6.27540357527323e-05,2.238615525129717e-05,-3.0274262826424092e-05,1.3128020327712875e-05
-6.0124195442767814e-05,3.266897692810744e-05,-2.7365917048882693e-05,1.2954104931850452e-05
-5.247213630354963e-05,4.6756129449931905e-05,-2.4307717467308976e-05,1.4490375178866088e-05
-4.5076780224917457e-05,5.464748028316535e-05,-2.3480808522435836e-05,1.6534275346202776e-05
-4.0691975300433114e-05,5.192606840864755e-05,-2.3139817130868323e-05,1.852626519394107e-05
-3.79248995159287e-05,4.4359352614264935e-05,-2.1299911168171093e-05,1.8410624761600047e-05
-3.5885826946469024e-05,3.933631887775846e-05,-1.822225567593705e-05,1.7163030861411244e-05
-3.676367850857787e-05,4.162236291449517e-05,-1.59630726557225e-05,1.8382348571321927e-05
-3.737128645298071e-05,4.764571713167243e-05,-1.670610799919814e-05,2.1935025870334357e-05
-3.7378325941972435e-05,4.680837446358055e-05,-2.0765752196894027e-05,2.197846697526984e-05
-4.433767026057467e-05,3.936213397537358e-05,-2.5530853235977702e-05,1.6698975741746835e-05
-5.017295916331932e-05,3.221987572032958e-05,-2.927939385699574e-05,1.5083168364071753e-05
-4.823572817258537e-05,3.0502549634547904e-05,-3.0039724151720293e-05,1.9277844330645166e-05
-4.6281038521556184e-05,3.170214040437713e-05,-2.76026148640085e-05,2.440620301058516e-05
-4.691944923251867e-05,3.093085251748562e-05,-2.7547634090296924e-05,2.181306444981601e-05
-5.046436854172498e-05,2.499372567399405e-05,-2.9769680622848682e-05,1.9667129890876822e-05
-5.1305090892128646e-05,2.105643397953827e-05,-3.0243691071518697e-05,2.1012459910707548e-05
-4.8165693442570046e-05,2.4162787667592056e-05,-3.1303436117013916e-05,1.87825698958477e-05
-4.413536953506991e-05,2.668860906851478e-05,-3.18063648592215e-05,1.7481630493421108e-05
-4.2073817894561216e-05,2.3547487217001617e-05,-2.961326936201658e-05,2.2973197701503523e-05
-4.149327287450433e-05,1.8215496311313473e-05,-2.7739266442949884e-05,3.126749652437866e-05
-4.354299744591117e-05,1.758410144248046e-05,-2.825802584993653e-05,3.149938129354268e-05
-4.927610279992223e-05,1.983513902814593e-05,-2.8925782316946425e-05,2.5709658075356856e-05
-5.273094211588614e-05,2.228908851975575e-05,-2.656413198565133e-05,2.1358666344895028e-05
-5.364996468415484e-05,2.6620544304023497e-05,-2.1555524654104374e-05,2.0593184672179632e-05
-5.2204388339305297e-05,3.230199217796326e-05,-1.781300852599088e-05,2.155267611669842e-05
-5.1037339289905503e-05,3.463357643340714e-05,-1.92983807210112e-05,2.2788952264818363e-05
-5.127290933160111e-05,3.520891550579108e-05,-2.1743893739767373e-05,2.5081475541810505e-05
-4.898464976577088e-05,3.80852070520632e-05,-2.2093758161645383e-05,2.8387559723341838e-05
-4.2698819015640765e-05,4.0770868508843705e-05,-2.2222908228286542e-05,3.0301524020615034e-05
-3.9762580854585394e-05,4.037974213133566e-05,-2.1067913621664047e-05,2.9112468837411143e-05
-4.222873758408241e-05,3.763594213523902e-05,-1.8828350221156143e-05,2.6368141334387474e-05
-4.667610483011231e-05,3.054083208553493e-05,-1.9714623704203404e-05,2.5026944058481604e-05
-5.056864392827265e-05,2.2089761841925792e-05,-2.1956397176836617e-05,2.4049857529462315e-05
-4.902773071080446e-05,2.1488554921234027e-05,-2.3089120077202097e-05,2.1575689970632084e-05
-4.4800483010476455e-05,2.5697727323859e-05,-2.5619421649025753e-05,2.238650449726265e-05
-4.662701394408941e-05,2.7128506189910695e-05,-2.8598822609637864e-05,2.519508052500896e-05
-5.355709799914621e-05,2.506111741240602e-05,-2.81678785540862e-05,2.547782423789613e-05
-5.5610293202335015e-05,2.2646177967544645e-05,-2.4732033125474118e-05,2.41036104853265e-05
-4.719028220279142e-05,2.6230341973132454e-05,-2.2930722479941323e-05,2.4163960915757343e-05
-3.540117904776707e-05,3.447942071943544e-05,-2.3333092030952685e-05,2.9018208806519397e-05
-3.349781400174834e-05,3.8207082980079576e-05,-2.7418263925937936e-05,3.175048186676577e-05
-4.036456084577367e-05,3.2736355933593586e-05,-3.1861003662925214e-05,3.153925354126841e-05
-4.761983655043878e-05,2.5672290576039813e-05,-3.4206565032945946e-05,2.928323738160543e-05
-4.996499410481192e-05,2.64015507127624e-05,-3.2396488677477464e-05,2.476694862707518e-05
-4.71534876851365e-05,3.281133103882894e-05,-2.688064705580473e-05,2.2821599486633204e-05
-4.409148823469877e-05,3.851984365610406e-05,-2.397945172560867e-05,2.24705072469078e-05
-4.543381146504544e-05,3.6599794839276e-05,-2.3071843315847218e-05,2.1552861653617583e-05
-4.945265391143039e-05,3.396787724341266e-05,-2.359228892601095e-05,1.8753295080387034e-05
-5.341985524864867e-05,3.480835948721506e-05,-2.3122946004150435e-05,1.811331276257988e-05
-5.415600026026368e-05,3.653514067991637e-05,-2.2170677766553126e-05,1.982366848096717e-05
-4.9088033847510815e-05,3.65577798220329e-05,-2.2126385374576785e-05,1.9101928046438843e-05
-4.279457061784342e-05,3.236719567212276e-05,-2.274815233249683e-05,1.5429759514518082e-05
-3.944258423871361e-05,2.547787153162062e-05,-2.317849975952413e-05,1.3099744137434755e-05
-3.8867408875375986e-05,2.268676325911656e-05,-2.3961110855452716e-05,1.6474461517645977e-05
-4.050661300425418e-05,2.832968493748922e-05,-2.53476628131466e-05,2.1713536625611596e-05
-4.2775798647198826e-05,3.623923475970514e-05,-2.2748623450752348e-05,2.2970127247390337e-05
-4.114358307560906e-05,4.022835855721496e-05,-1.569866253703367e-05,2.147511622752063e-05
-3.861968798446469e-05,3.835910320049152e-05,-1.2419616723491345e-05,2.1922867745161057e-05
-4.123303369851783e-05,3.400217246962711e-05,-1.5684896425227635e-05,2.4794897399260662e-05
-4.579435699270107e-05,3.105302675976418e-05,-1.9586846974561922e-05,2.5219596864189953e-05
-4.948768764734268e-05,3.535779978847131e-05,-2.336586476303637e-05,2.141660479537677e-05
-5.2639690693467855e-05,4.456512033357285e-05,-2.645131644385401e-05,2.0627750927815214e-05
-5.596805567620322e-05,4.731822991743684e-05,-2.7553322070161812e-05,2.4602613848401234e-05
-5.582413723459467e-05,4.297876512282528e-05,-2.750467865553219e-05,2.972598849737551e-05
-4.8710324335843325e-05,4.377659206511453e-05,-2.6397814508527517e-05,3.2061834644991904e-05
-4.048725531902164e-05,4.5040054828859866e-05,-2.5451519832131453e-05,3.1197399948723614e-05
-3.918164657079615e-05,4.377832738100551e-05,-2.5587007257854566e-05,2.9131759220035747e-05
-4.584077760227956e-05,4.418392927618697e-05,-2.622009560582228e-05,2.567911178630311e-05
-5.5584063375135884e-05,3.892024324159138e-05,-2.959369885502383e-05,2.4868681066436693e-05
-6.492021930171177e-05,3.2621424907119945e-05,-3.123973147012293e-05,2.5109991838689893e-05
-6.982361810514703e-05,2.9585386073449627e-05,-2.9290005841176026e-05,2.42718724621227e-05
-7.001504127401859e-05,3.132664642180316e-05,-2.5510695195407607e-05,2.291702367074322e-05
-6.859018321847543e-05,3.663422103272751e-05,-2.3215859982883558e-05,2.3882668756414205e-05
-6.815598317189142e-05,4.012905992567539e-05,-2.4463732188451104e-05,2.8608186767087318e-05
-6.977521843509749e-05,4.4101168896304443e-05,-2.782978117465973e-05,3.1498977477895096e-05
-7.446212839568034e-05,4.891445132670924e-05,-3.0379969757632352e-05,2.774640051939059e-05
-7.663515862077475e-05,5.2997547754785046e-05,-2.8322963771643117e-05,2.1084881154820323e-05
-7.160876702982932e-05,5.3805579227628186e-05,-2.5124272724497132e-05,1.7520944311399944e-05
-6.30348440608941e-05,5.135138417244889e-05,-2.3111429982236587e-05,1.8753065887722187e-05
-5.4142448789207265e-05,4.758946306537837e-05,-2.3070169845595956e-05,2.239000787085388e-05
-4.604926652973518e-05,4.17023547925055e-05,-2.3518374291597866e-05,2.549752389313653e-05
-3.936642679036595e-05,3.402368747629225e-05,-2.6576852178550325e-05,2.6200503270956688e-05
-3.5675762774189934e-05,2.739819865382742e-05,-3.160414780722931e-05,2.247842166980263e-05
-3.327606827951968e-05,2.192409010604024e-05,-3.4567176044220105e-05,1.9274766600574367e-05
-3.2098010706249624e-05,1.866465936473105e-05,-3.3313936000922695e-05,2.036475416389294e-05
-3.535719952196814e-05,1.6016361769288778e-05,-2.9577951863757335e-05,2.3635848265257664e-05
-4.068317502969876e-05,9.769721145858057e-06,-2.507924727979116e-05,2.3830220015952364e-05
-4.244079900672659e-05,4.223458745400421e-06,-2.3883078029030003e-05,2.0719515305245295e-05
-4.35674301115796e-05,6.08860818829271e-06,-2.6568101020529866e-05,1.896360845421441e-05
-4.714460374088958e-05,1.4236634342523757e-05,-3.0220282496884465e-05,1.967880962183699e-05
-4.9986829253612086e-05,2.084289735648781e-05,-3.3011056075338274e-05,2.0533359929686412e-05
-5.148652780917473e-05,2.370715628785547e-05,-3.1944437068887055e-05,2.2158774299896322e-05
-5.436035280581564e-05,2.1731109882239252e-05,-3.322496559121646e-05,2.4979939553304575e-05
-5.119548586662859e-05,2.0755544028361328e-05,-3.619665585574694e-05,2.6849511414184235e-05
-4.323885150370188e-05,2.5050198019016534e-05,-3.440466389292851e-05,2.7836544177262112e-05
-4.152106703259051e-05,2.6015708499471657e-05,-3.0508690542774275e-05,2.7819933166028932e-05
-4.4806623918702826e-05,2.9912986065028235e-05,-2.940892954939045e-05,2.6487046852707863e-05
-4.753341636387631e-05,4.0947485103970394e-05,-2.96110210911138e-05,2.2560185243492015e-05
-5.179075014893897e-05,4.8802514356793836e-05,-2.952103750430979e-05,1.9490338672767393e-05
-5.7231962273363024e-05,4.750696098199114e-05,-2.8312424547038972e-05,1.9026601876248606e-05
-5.674337444361299e-05,4.0832586819306016e-05,-2.901498919527512e-05,2.103512451867573e-05
-4.938110942021012e-05,3.683111208374612e-05,-3.2663218007655814e-05,2.334538658033125e-05
-4.0689821616979316e-05,3.861080404021777e-05,-3.376905806362629e-05,2.307216163899284e-05
-3.4648172004381195e-05,4.202642594464123e-05,-2.8992470106459223e-05,2.1907144400756806e-05
-3.1137817131821066e-05,4.241417263983749e-05,-2.3401416910928674e-05,2.1543124603340402e-05
-3.3209824323421344e-05,4.138536314712837e-05,-2.2002584955771454e-05,2.233303530374542e-05
-3.760050822165795e-05,3.675593688967638e-05,-2.5396824639756233e-05,2.232715632999316e-05
-4.2212042899336666e-05,3.1298033718485385e-05,-2.9581953640445136e-05,2.1843614376848564e-05
-4.6800447307759896e-05,3.168232797179371e-05,-2.993309317389503e-05,2.1367299268604256e-05
-5.0495309551479295e-05,3.5117758670821786e-05,-2.8232547265361063e-05,2.178174509026576e-05
-5.093523213872686e-05,3.4688338928390294e-05,-2.7018786568078212e-05,2.1346344510675408e-05
-4.969302244717255e-05,3.203238156856969e-05,-2.6052264729514718e-05,1.930829239427112e-05
-5.151743971509859e-05,2.9137579986127093e-05,-2.3721491743344814e-05,1.7625978216528893e-05
-5.571480869548395e-05,2.5972332878154702e-05,-2.1199177353992127e-05,1.9546081603039056e-05
-5.745773887610994e-05,2.8932548957527615e-05,-2.0870502339676023e-05,2.3324402718571946e-05
-5.4368436394724995e-05,3.600736090447754e-05,-2.423299702059012e-05,2.3295120627153665e-05
-4.884780719294213e-05,3.9794416807126254e-05,-2.8003842089674436e-05,2.010838761634659e-05
-4.353391341282986e-05,3.663670941023156e-05,-2.8369131541694514e-05,1.9546496332623065e-05
-4.1965875425376e-05,3.101531183347106e-05,-2.6328267267672345e-05,2.490857514203526e-05
-4.5549433707492426e-05,2.9375310987234116e-05,-2.6064148187288083e-05,3.072629988309927e-05
-5.0815477152355015e-05,2.7542555471882224e-05,-2.6549929316388443e-05,3.1432642572326586e-05
-5.2478026191238314e-05,2.2433825506595895e-05,-2.5962837753468193e-05,2.9762093618046492e-05
-5.397024142439477e-05,1.804848579922691e-05,-2.288793257321231e-05,2.880547799577471e-05
-5.636042624246329e-05,1.9117969713988714e-05,-1.9639028323581442e-05,2.7984900953015313e-05
-5.8737183280754834e-05,1.9750081264646724e-05,-1.941796472237911e-05,2.6765123038785532e-05
-6.224667595233768e-05,1.4402842680283356e-05,-1.92342067748541e-05,2.6276742573827505e-05
-6.355458754114807e-05,6.648625912930584e-06,-1.9333350792294368e-05,2.805109033943154e-05
-5.6814398703863844e-05,1.4353105370901176e-06,-1.9876026271958835e-05,2.811220292642247e-05
-4.834955689148046e-05,5.572370582740405e-07,-2.19486428250093e-05,2.4760358428466134e-05
-4.840640031034127e-05,6.452291927416809e-06,-2.409362787147984e-05,2.1061177903902717e-05
-5.492757918545976e-05,1.8446604372002184e-05,-2.253289130749181e-05,1.8865221136366017e-05
-5.992814476485364e-05,3.0045353923924267e-05,-1.7833397578215227e-05,1.837095078371931e-05
-6.294054037425667e-05,3.870050568366423e-05,-1.3333107744983863e-05,2.079352088912856e-05
-6.801942072343081e-05,4.4042924855602905e-05,-1.1787356925196946e-05,2.2084814190748148e-05
-7.595206261612475e-05,4.9238980864174664e-05,-1.2770520697813481e-05,1.9304801753605716e-05
-8.376387268071994e-05,5.739540938520804e-05,-1.5751860701129772e-05,1.618592068552971e-05
-8.67588896653615e-05,6.74665134283714e-05,-1.84297350642737e-05,1.4058036867936607e-05
-8.414538024226204e-05,7.298130367416888e-05,-2.0654482796089724e-05,1.1768854164984077e-05
-7.984526018844917e-05,7.138785440474749e-05,-2.498734465916641e-05,1.0641628250596114e-05
-7.415907020913437e-05,6.684947584290057e-05,-2.9972272386658005e-05,1.1906381587323267e-05
-6.314957863651216e-05,6.356063386192545e-05,-3.303218545624986e-05,1.5093455658643506e-05
-4.783624899573624e-05,6.265671254368499e-05,-2.9912422178313136e-05,1.9888177121174522e-05
-3.381104033906013e-05,6.181755452416837e-05,-2.305597809026949e-05,2.316298196092248e-05
-2.6032486857729964e-05,5.2132552809780464e-05,-1.969872391782701e-05,2.3965885702637024e-05
-2.3196549591375515e-05,4.009575422969647e-05,-1.9597753635025583e-05,2.5901454137056135e-05
-1.8539538359618746e-05,3.2309751986758783e-05,-1.9972241716459394e-05,2.9874259780626744e-05
-1.4395619473361876e-05,2.7873849830939434e-05,-2.133688576577697e-05,3.353915235493332e-05
-1.8571405234979466e-05,2.5857631044345908e-05,-2.3737360606901348e-05,3.381881469977088e-05
-2.6507665097597055e-05,2.2507543690153398e-05,-2.5572648155502975e-05,3.031876440218184e-05
-3.4044762287521735e-05,2.1447478502523154e-05,-2.593718090793118e-05,2.6147372409468517e-05
-4.072747105965391e-05,1.988419535337016e-05,-2.3634946046513505e-05,2.1952928364044055e-05
-4.071217335877009e-05,1.8747539797914214e-05,-2.04928273888072e-05,1.8862638171412982e-05
-3.3709759009070694e-05,1.717830127745401e-05,-1.9744953533518128e-05,2.0009076251881197e-05
-3.197165278834291e-05,1.5531450117123313e-05,-2.3354341465164907e-05,2.416717507003341e-05
-3.804409789154306e-05,1.5148837519518565e-05,-2.5229688617400825e-05,2.742598189797718e-05
-4.6498917072312906e-05,1.8317032299819402e-05,-2.3517308363807388e-05,2.8946724341949448e-05
-5.108232289785519e-05,2.473804670444224e-05,-1.989263910218142e-05,3.0031620553927496e-05
-5.041473559685983e-05,2.9071876269881614e-05,-1.9214885469409637e-05,2.9490172892110422e-05
-4.929474016535096e-05,3.1662209948990494e-05,-2.053442040050868e-05,2.7522781238076277e-05
-5.204782064538449e-05,3.1854047847446054e-05,-1.985655580938328e-05,2.7639694962999783e-05
-5.6177726946771145e-05,2.644212327140849e-05,-1.9359844372957014e-05,2.8288506655371748e-05
-5.847366264788434e-05,1.6975922335404903e-05,-2.076590317301452e-05,2.7732456146623008e-05
-5.923158096265979e-05,1.3557066267821938e-05,-2.4844022846082225e-05,2.5835784981609322e-05
-5.855245399288833e-05,1.8698594431043603e-05,-2.8832630050601438e-05,2.530865094740875e-05
-5.880771641386673e-05,2.3747879822622053e-05,-3.157555329380557e-05,2.7379115635994822e-05
-6.105262582423165e-05,2.286975723109208e-05,-3.0398396120290272e-05,3.12958873109892e-05
-6.377707904903218e-05,1.8527101929066703e-05,-2.8825450499425642e-05,3.628948252298869e-05
-6.673677125945687e-05,1.395737945131259e-05,-3.102792470599525e-05,3.868187923217192e-05
-6.948826921870932e-05,1.0223697245237418e-05,-3.360953269293532e-05,3.5278786526760086e-05
-6.550785474246368e-05,7.232139068946708e-06,-3.1672352633904666e-05,2.771112667687703e-05
-5.989706187392585e-05,7.532558811362833e-06,-3.0096451155259274e-05,2.1208385078352876e-05
-5.52584242541343e-05,1.1942002856812906e-05,-2.9374736186582595e-05,2.0783596482942812e-05
-4.852342317462899e-05,1.224925017595524e-05,-2.6766529117594473e-05,2.605590270832181e-05
-4.202780473860912e-05,6.632846634602174e-06,-2.3821572540327907e-05,2.6913148758467287e-05
-3.878965071635321e-05,2.816580035869265e-06,-2.2537757104146294e-05,2.193765431002248e-05
-3.6853070923825726e-05,2.233784243799164e-06,-2.4058315830188803e-05,1.6784912077127956e-05
-3.5036340705119073e-05,5.3739659051643685e-06,-2.6130212063435465e-05,1.5764944691909477e-05
-3.850576467812061e-05,1.2964044799446128e-05,-2.936513556051068e-05,1.8458049453329295e-05
-4.650678238249384e-05,2.502624374756124e-05,-3.259471486671828e-05,2.1395682779257186e-05
-5.180524385650642e-05,3.653134263004176e-05,-3.4467240766389295e-05,2.479925569787156e-05
-5.382576273404993e-05,4.0077145968098193e-05,-3.7809499190188944e-05,2.750169369392097e-05
-5.372548184823245e-05,3.7932823033770546e-05,-3.991960329585709e-05,3.0142533432808705e-05
-4.998638905817643e-05,3.510926399030723e-05,-3.754012504941784e-05,2.980869794555474e-05
-4.837924279854633e-05,3.319844836369157e-05,-3.329305036459118e-05,2.6221345251542516e-05
-5.0581973482621834e-05,3.2877873309189454e-05,-3.0128694561426528e-05,2.468017555656843e-05
-5.39076718268916e-05,3.5033437598031014e-05,-2.7929811039939523e-05,2.6040665034088306e-05
-5.648228034260683e-05,3.7635800254065543e-05,-2.8439986635930836e-05,2.582926936156582e-05
-5.8544679632177576e-05,3.663762254291214e-05,-3.2596304663456976e-05,2.2207315851119347e-05
-5.80266751057934e-05,3.2702570024412125e-05,-3.6685763916466385e-05,2.072910501738079e-05
-5.274998693494126e-05,2.9958617233205587e-05,-3.5667319025378674e-05,2.3690749003435485e-05
-4.38039205619134e-05,2.8617065254366025e-05,-3.1270839826902375e-05,2.5439921955694444e-05
-3.3977950806729496e-05,2.8851387469330803e-05,-2.940902231785003e-05,2.3969385438249446e-05
-2.8521966669359244e-05,3.473510514595546e-05,-3.0094275643932633e-05,2.4866445528459735e-05
-3.208917041774839e-05,4.1858875192701817e-05,-3.1897026929073036e-05,2.6068590159411542e-05
-4.431555134942755e-05,4.169584281044081e-05,-3.493115946184844e-05,2.691836198209785e-05
-5.563497688854113e-05,4.343098044046201e-05,-3.661386654130183e-05,2.9711092793149874e-05
-6.23422529315576e-05,5.59648651687894e-05,-3.377747270860709e-05,3.0134526241454296e-05
-6.322877743514255e-05,6.76206182106398e-05,-2.995649992953986e-05,2.790268808894325e-05
-5.958984911558218e-05,6.985005893511698e-05,-2.7311463782098144e-05,2.6269955924362876e-05
-5.294614675221965e-05,6.147297244751826e-05,-2.8240037863724865e-05,2.3527178200311027e-05
-4.408015956869349e-05,4.841705231228843e-05,-2.878138366213534e-05,2.4513974494766444e-05
-4.109224028070457e-05,3.995486622443423e-05,-2.4341621610801667e-05,2.486428275005892e-05
-4.306509799789637e-05,3.224530155421235e-05,-2.0852159650530666e-05,1.9326136680319905e-05
-4.67569479951635e-05,2.7384672648622654e-05,-2.147303894162178e-05,1.2477687960199546e-05
-5.137170956004411e-05,3.0186158255673945e-05,-2.612731623230502e-05,4.700840236182557e-06
-5.3123003453947604e-05,3.590666892705485e-05,-2.777843110379763e-05,3.82962025469169e-06
-5.099426562082954e-05,3.873764944728464e-05,-2.5145169274765067e-05,4.961639206157997e-06
-4.7734534746268764e-05,3.6698285839520395e-05,-2.4242630388471298e-05,5.518742455024039e-06
-4.201793490210548e-05,2.7773530746344477e-05,-2.503546784282662e-05,8.115930540952832e-06
-3.8221733120735735e-05,1.7400208889739588e-05,-2.781578223221004e-05,1.0814402230607811e-05
-4.01080324081704e-05,1.4196557458490133e-05,-3.0322709790198132e-05,1.456698555557523e-05
-4.525043550529517e-05,2.2251602786127478e-05,-3.198494596290402e-05,1.8512409951654263e-05
-5.2967552619520575e-05,3.516033029882237e-05,-2.9744929634034634e-05,2.2310112399281934e-05
-5.941228664596565e-05,4.3916057620663196e-05,-2.5872699552564882e-05,2.5819223083090037e-05
-6.048524664947763e-05,4.4516316847875714e-05,-2.4998236767714843e-05,2.8385511541273445e-05
-5.4895175708225e-05,4.1060688090510666e-05,-2.850199962267652e-05,2.950757698272355e-05
-4.745064870803617e-05,3.95748284063302e-05,-3.118327003903687e-05,3.054160697502084e-05
-4.2553652747301385e-05,4.011354030808434e-05,-2.8291249691392295e-05,3.0780098313698545e-05
-4.334713230491616e-05,4.025357702630572e-05,-2.3898361177998595e-05,2.8981819923501462e-05
-4.876535967923701e-05,3.642556839622557e-05,-2.388562643318437e-05,2.540867899369914e-05
-5.332407818059437e-05,2.9922715839347802e-05,-2.7684345695888624e-05,2.2850428649690002e-05
-5.0767353968694806e-05,2.5192142857122235e-05,-3.058757647522725e-05,2.1685884348698892e-05
-4.468041879590601e-05,2.6806173991644755e-05,-3.187985566910356e-05,2.369672256463673e-05
-4.099467332707718e-05,3.0181397960404865e-05,-3.1395880796480924e-05,2.563384077802766e-05
-4.176502625341527e-05,2.9400602215901017e-05,-2.9823335353285074e-05,2.5647617803770117e-05
-4.4625045120483264e-05,2.6541874831309542e-05,-2.617366408230737e-05,2.8825263143517077e-05
-4.7827765229158103e-05,2.0759189283126034e-05,-2.3568687538499944e-05,3.240361547796056e-05
-4.877274841419421e-05,1.6788462744443677e-05,-2.426229002594482e-05,3.103766357526183e-05
-4.266391624696553e-05,1.7489910533186048e-05,-2.547855365264695e-05,2.9412958610919304e-05
-3.8423830119427294e-05,1.6823196347104385e-05,-2.7762402169173583e-05,2.9463359169312753e-05
-3.9154056139523163e-05,2.028846211032942e-05,-2.738939474511426e-05,2.6096682631759904e-05
-4.2789710278157145e-05,2.4817516532493755e-05,-2.1403664504759945e-05,2.2876303773955442e-05
-4.8654084821464494e-05,2.84071375062922e-05,-1.8561357137514278e-05,2.1883290173718706e-05
-5.09314049850218e-05,3.1580173526890576e-05,-1.9199453163309954e-05,2.0345474695204757e-05
-4.988915679859929e-05,3.3042291761375964e-05,-1.9679797333083116e-05,1.6107360352179967e-05
-5.26655676367227e-05,3.012301203852985e-05,-1.863479701569304e-05,1.2628439435502514e-05
-5.805875116493553e-05,2.4660268536536023e-05,-1.8313125110580586e-05,1.1786244613176677e-05
-6.116359872976318e-05,2.1100986486999318e-05,-1.881715616036672e-05,1.2393928045639768e-05
-6.108215166023001e-05,2.01456878130557e-05,-2.087800021399744e-05,1.4421592823055107e-05
-5.958331894362345e-05,1.9245124349254183e-05,-2.3605178284924477e-05,1.7526828742120415e-05
-5.463582419906743e-05,2.062896419374738e-05,-2.335451245016884e-05,2.0369938283693045e-05
-4.8643702029949054e-05,2.4193936042138375e-05,-2.1782183466712013e-05,2.047992529696785e-05
-4.6303714043460786e-05,2.5401690436410718e-05,-2.0940866306773387e-05,1.8020351490122266e-05
-4.4306238123681396e-05,2.8945554731762968e-05,-1.866685488494113e-05,1.435112972103525e-05
-4.041682404931635e-05,3.5133482015226036e-05,-1.4844627912680153e-05,1.2556597539514769e-05
-3.8238307752180845e-05,3.901988020516001e-05,-1.450545278203208e-05,1.3384652447712142e-05
-4.058123522554524e-05,4.015669401269406e-05,-1.6899630281841382e-05,1.5831226846785285e-05
-4.428028842085041e-05,4.1713836253620684e-05,-1.806018190109171e-05,1.760106169967912e-05
-4.8822279495652765e-05,4.238411202095449e-05,-1.788414920156356e-05,1.760339546308387e-05
-5.698963286704384e-05,4.555935083772056e-05,-2.048270107479766e-05,1.9664592400658876e-05
-6.582005880773067e-05,5.158545172889717e-05,-2.462512202328071e-05,2.3724678612779826e-05
-6.780478724977002e-05,5.8394962252350524e-05,-2.5444154744036496e-05,2.7202242563362233e-05
-6.47028791718185e-05,6.029180804034695e-05,-2.2139867724035867e-05,2.779901296889875e-05
-6.395049422280863e-05,5.619029252557084e-05,-2.0975639927200973e-05,2.5867982913041487e-05
-6.371070048771799e-05,4.97982109664008e-05,-2.4611263143015094e-05,2.416468305455055e-05
-6.112033588578925e-05,4.779510709340684e-05,-2.950040106952656e-05,1.9383862309041433e-05
-5.6059230701066554e-05,4.697631811723113e-05,-3.376455424586311e-05,8.879502274794504e-06
-4.6178374759620056e-05,3.691665187943727e-05,-3.45417793141678e-05,-5.653427251672838e-06
-4.053942029713653e-05,2.662081351445522e-05,-3.146343806292862e-05,-1.4144549822958652e-05
-4.392065602587536e-05,2.734204099397175e-05,-2.866195973183494e-05,-8.44081114337314e-06
-4.7143996198428795e-05,3.7922316550975665e-05,-2.756699723249767e-05,1.0011415724875405e-05
-4.477000766200945e-05,4.874724254477769e-05,-2.697017953323666e-05,3.145989467157051e-05
-4.148272637394257e-05,5.014630005462095e-05,-2.605635381769389e-05,4.494482709560543e-05
-4.066445762873627e-05,4.600791726261377e-05,-2.4623679564683698e-05,4.9825790483737364e-05
-3.887976345140487e-05,4.772510874317959e-05,-2.1543663024203852e-05,5.373996827984229e-05
-3.373960134922527e-05,5.560299541684799e-05,-1.7585054592927918e-05,6.0980572015978396e-05
-2.8072219720343128e-05,6.168960680952296e-05,-1.419155432813568e-05,6.689660949632525e-05
-2.8789554562536068e-05,6.199159543029964e-05,-1.4219258446246386e-05,6.801953713875264e-05
-3.556119918357581e-05,5.757575127063319e-05,-1.6618614608887583e-05,6.438237323891371e-05
-4.103755418327637e-05,5.4444051784230396e-05,-1.845536462496966e-05,5.708040771423839e-05
-4.420139521243982e-05,5.486926602316089e-05,-1.9764964235946536e-05,4.663747677113861e-05
-4.995101335225627e-05,5.34326936758589e-05,-2.2874648493598215e-05,3.582674253266305e-05
-5.7024848501896486e-05,4.4399730541044846e-05,-2.86205922748195e-05,2.715160917432513e-05
-5.87724607612472e-05,3.260658195358701e-05,-3.358771209605038e-05,1.987103678402491e-05
-5.186883936403319e-05,2.2565121980733238e-05,-3.668623685371131e-05,1.6655119907227345e-05
-4.0499773604096845e-05,1.3446535376715474e-05,-3.784260479733348e-05,2.0990137272747234e-05
-3.7025707570137456e-05,1.25967289932305e-05,-3.727866351255216e-05,2.602076347102411e-05
-4.249891935614869e-05,1.907794467115309e-05,-3.7000765587436035e-05,2.6339359465055168e-05
-4.502391675487161e-05,2.5829654987319373e-05,-3.7821737350896e-05,2.326524190721102e-05
-4.494570748647675e-05,2.835184204741381e-05,-3.771136107388884e-05,2.057755227724556e-05
-4.616755177266896e-05,2.6354156943853013e-05,-3.406295945751481e-05,1.838547359511722e-05
-4.9775928346207365e-05,2.354333810217213e-05,-2.7892265279660933e-05,1.707670344330836e-05
-4.937163248541765e-05,2.2959564375923946e-05,-2.3910011805128306e-05,1.8259306671097875e-05
-4.821095717488788e-05,2.536810097808484e-05,-2.5202991309924982e-05,1.853717549238354e-05
-5.5913624237291515e-05,2.2301572244032286e-05,-2.6140509362448938e-05,1.6201000107685104e-05
-6.181064964039251e-05,2.05185788217932e-05,-2.4900016796891578e-05,1.3369690350373276e-05
-6.362078420352191e-05,2.5642018954386003e-05,-2.4527420464437455e-05,1.2953040823049378e-05
-6.935172859812155e-05,2.887827213271521e-05,-2.4233175281551667e-05,1.6113564925035462e-05
-7.71406848798506e-05,2.780694921966642e-05,-2.7270662030787207e-05,2.002645305765327e-05
-8.073494245763868e-05,2.1881774955545552e-05,-3.143942740280181e-05,2.149958163499832e-05
-7.742178422631696e-05,1.804285238904413e-05,-3.294385896879248e-05,2.150632644770667e-05
-7.064223609631881e-05,1.7767733879736625e-05,-3.1134652090258896e-05,2.2117084881756455e-05
-6.510337698273361e-05,2.009578383876942e-05,-2.8610515073523857e-05,2.4666916942805983e-05
-5.987814802210778e-05,2.4641200070618652e-05,-2.569369098637253e-05,2.5399802325409837e-05
-5.512594725587405e-05,2.732769280555658e-05,-2.3437212803401053e-05,2.4269487767014652e-05
-5.336900721886195e-05,2.0905283236061223e-05,-2.4496672267559916e-05,2.47084262809949e-05
-5.559589772019535e-05,9.327300176664721e-06,-2.6826392058865167e-05,2.7539474103832617e-05
-5.780214996775612e-05,6.518819191114744e-06,-2.5816094421315938e-05,2.8945611120434478e-05
-5.547102409764193e-05,1.8120465028914623e-05,-2.3822853108868003e-05,2.6577154130791314e-05
-5.0262504373677075e-05,3.5000775824300945e-05,-2.4192326236516237e-05,2.6868987333728e-05
-4.990965317119844e-05,4.371259637991898e-05,-2.4472052245982923e-05,3.038079375983216e-05
-5.4795593314338475e-05,4.011317287222482e-05,-2.253906313853804e-05,3.0060096833040006e-05
-5.462353510665707e-05,3.0959650757722557e-05,-2.1426403691293672e-05,2.7026384486816823e-05
-4.8353216698160395e-05,2.7326428607921116e-05,-2.353700256207958e-05,2.528485310904216e-05
-3.9843838749220595e-05,3.2332103728549555e-05,-2.20382098632399e-05,2.55135128099937e-05
-2.72873821813846e-05,3.719726009876467e-05,-1.542762947792653e-05,2.646805478434544e-05
-1.619422073417809e-05,3.575789378373884e-05,-1.0153823495784309e-05,2.6249439542880282e-05
-1.025300025503384e-05,3.3427004382247105e-05,-1.3156819477444515e-05,2.5845478376140818e-05
-5.150071046955418e-06,3.141068373224698e-05,-2.2021305994712748e-05,2.47420794039499e-05
-4.763925517181633e-06,3.0333998438436538e-05,-2.5914585421560332e-05,2.2763566448702477e-05
-1.13695541585912e-05,2.737683644227218e-05,-2.2537644326803274e-05,2.1128727894392796e-05
-2.0510467948042788e-05,2.130895336449612e-05,-2.2139083739602938e-05,2.07346001843689e-05
-2.8880736863357015e-05,1.8581435142550617e-05,-2.3632341253687628e-05,2.1811418264405802e-05
-3.673066748888232e-05,2.3074453565641306e-05,-2.197009598603472e-05,2.3322843844653107e-05
-4.5715391024714336e-05,2.8885169740533456e-05,-2.189867154811509e-05,2.2192782125785016e-05
-5.479343963088468e-05,3.300292883068323e-05,-2.688751192181371e-05,1.974803672055714e-05
-5.682713890564628e-05,3.376986933290027e-05,-2.915004370152019e-05,2.149671308870893e-05
-5.161905937711708e-05,3.054844637517817e-05,-2.7621275876299478e-05,2.3973185307113454e-05
-4.6890563680790365e-05,3.0454457373707555e-05,-2.919150938396342e-05,2.5651290343375877e-05
-4.58689610240981e-05,3.252888564020395e-05,-3.337990347063169e-05,2.66114147962071e-05
-4.757015994982794e-05,3.130298500764184e-05,-3.572795685613528e-05,2.4926495825638995e-05
-5.276123192743398e-05,2.737448266998399e-05,-3.2793872378533706e-05,2.315717028977815e-05
-5.7043289416469634e-05,2.3424025130225345e-05,-2.9097032893332653e-05,2.372157177887857e-05
-5.636062996927649e-05,2.2328185877995566e-05,-2.6676570996642113e-05,2.6735964638646692e-05
-5.35284161742311e-05,2.9819564588251524e-05,-2.5176916096825153e-05,2.8269985705264844e-05
-5.2430772484513e-05,4.172111948719248e-05,-2.4293129172292538e-05,2.6595738745527342e-05
-5.300258271745406e-05,4.5138127461541444e-05,-2.2204492779565044e-05,2.2429270757129416e-05
-5.647406214848161e-05,3.550308247213252e-05,-1.8593293134472333e-05,1.9313380107632838e-05
-6.278956425376236e-05,2.3408967535942793e-05,-1.7353637304040603e-05,1.8485043256077915e-05
-6.807949830545112e-05,1.956083724508062e-05,-1.8798788005369715e-05,1.8655082385521382e-05
-7.013310823822394e-05,2.2328922568704e-05,-2.0794406736968085e-05,2.0081626644241624e-05
-6.87726351316087e-05,2.7957530619460158e-05,-1.982247158593964e-05,2.28221106226556e-05
-6.808125181123614e-05,3.324721910757944e-05,-1.7062460756278597e-05,2.525333002267871e-05
-6.63315222482197e-05,3.727847433765419e-05,-1.9357197743374854e-05,2.72943070740439e-05
-6.309167656581849e-05,4.1602303099352866e-05,-2.2481815904029645e-05,2.6865107429330237e-05
-6.527311779791489e-05,4.143950354773551e-05,-2.4717666747164913e-05,2.5951892894227058e-05
-6.912618118803948e-05,3.260763332946226e-05,-2.865318128897343e-05,2.5326822651550174e-05
-6.845559255452827e-05,2.4544513507862575e-05,-2.9896293199271895e-05,2.5301049390691333e-05
-6.734359340043738e-05,2.709276304813102e-05,-2.8803142413380556e-05,2.6681418603402562e-05
-6.146026134956628e-05,3.439750071265735e-05,-2.5232910047634505e-05,2.5830380764091387e-05
-5.5456443078583106e-05,3.954269413952716e-05,-2.1499050490092486e-05,2.3738841264275834e-05
-5.681318725692108e-05,4.2177794966846704e-05,-2.2812120732851326e-05,2.0490710085141473e-05
-6.307604780886322e-05,4.299716238165274e-05,-2.4328312065335922e-05,1.8683645976125263e-05
-6.307601142907515e-05,4.2981184378731996e-05,-2.273783138662111e-05,1.6883786884136498e-05
-5.5392574722645804e-05,4.09397944167722e-05,-2.1240020942059346e-05,1.4694202945975121e-05
-4.885340604232624e-05,3.891079541062936e-05,-2.3406128093483858e-05,1.4012060091772582e-05
-4.3817977712024e-05,3.779509279411286e-05,-2.6333462301408872e-05,1.6310863429680467e-05
-4.12264525948558e-05,3.7547899410128593e-05,-2.807314376696013e-05,1.697105835773982e-05
-4.309026917326264e-05,3.905063204001635e-05,-3.1138719350565225e-05,1.7707190636429004e-05
-4.733237437903881e-05,3.967037264374085e-05,-3.383358853170648e-05,2.185905395890586e-05
-4.9772064812714234e-05,3.744708010344766e-05,-3.2564421417191625e-05,2.6979416361427866e-05
-5.111774953547865e-05,3.579141048248857e-05,-2.9648304916918278e-05,2.8395652407198213e-05
-5.170399526832625e-05,3.53708237526007e-05,-2.960412712127436e-05,2.3489103114116006e-05
-5.44941212865524e-05,3.3249289117520675e-05,-3.15180623147171e-05,1.6833164409035817e-05
-5.623467586701736e-05,3.245106199756265e-05,-3.137921157758683e-05,1.5002269719843753e-05
-5.4160434956429526e-05,3.2654374081175774e-05,-2.9847795303794555e-05,1.8979597371071577e-05
-5.272149792290293e-05,3.387145989108831e-05,-3.128386742901057e-05,2.4263388695544563e-05
-5.488670285558328e-05,4.268765769666061e-05,-2.9769056709483266e-05,2.6084380806423724e-05
-6.01228020968847e-05,5.803880048915744e-05,-2.3334405341302045e-05,2.3171591237769462e-05
-6.45812033326365e-05,6.616870814468712e-05,-2.132129702658858e-05,2.2488404283649288e-05
-6.465646583819762e-05,6.174104055389762e-05,-2.4748580472078174e-05,2.2181367967277765e-05
-5.882674304302782e-05,5.1929793698946014e-05,-3.0705868994118646e-05,2.1273668608046137e-05
-4.9973721615970135e-05,4.058603008161299e-05,-3.497974103083834e-05,2.0490815586526878e-05
-4.5600270823342726e-05,3.274075061199255e-05,-3.346476660226472e-05,1.8361812180955894e-05
-4.152437759330496e-05,2.9164097213651985e-05,-2.825569754349999e-05,1.4957826351746917e-05
-3.587434548535384e-05,2.616542587929871e-05,-2.6423800591146573e-05,1.2153561328887008e-05
-3.3243948564631864e-05,2.4938284695963375e-05,-2.6936570066027343e-05,1.1237747457926162e-05
-3.309143357910216e-05,2.644322557898704e-05,-2.5385641492903233e-05,1.088295266526984e-05
-3.5873854358214885e-05,2.9224862373666838e-05,-2.3122274797060527e-05,1.0237146852887236e-05
-3.9994585677050054e-05,3.0676037567900494e-05,-2.0412238882272504e-05,1.4172788723954e-05
-4.195129076833837e-05,2.7228707040194422e-05,-1.8693490346777253e-05,2.159472023777198e-05
-3.8761347241234034e-05,2.1413945432868786e-05,-1.8636483218870126e-05,2.7483962185215205e-05
-3.77816213585902e-05,2.206639874202665e-05,-1.867362152552232e-05,3.0223309295251966e-05
-4.041817010147497e-05,2.7918407795368694e-05,-1.9033501303056255e-05,3.235114490962587e-05
-4.148497828282416e-05,3.0314324249047786e-05,-2.167636739613954e-05,3.4327851608395576e-05
-4.168698069406673e-05,2.7986070563201793e-05,-2.2202568288776092e-05,3.299918171251193e-05
-4.422311394591816e-05,2.4677707187947817e-05,-1.8778233425109647e-05,2.77137278317241e-05
-4.8589823563816026e-05,2.1305089831002988e-05,-1.6180803868337534e-05,2.444472920615226e-05
-5.230711758485995e-05,2.2894340872881003e-05,-1.6803784092189744e-05,2.693364876904525e-05
-5.4636002460028976e-05,3.276840288890526e-05,-1.6612311810604297e-05,3.052225656574592e-05
-5.516698365681805e-05,4.08752093790099e-05,-1.5496820196858607e-05,3.2295727578457445e-05
-5.283151404000819e-05,4.022366920253262e-05,-1.7514475985080935e-05,3.360174741828814e-05
-5.047111335443333e-05,3.462026143097319e-05,-2.1836576706846245e-05,3.61853490176145e-05
-4.983556937077083e-05,2.810087607940659e-05,-2.3938091544550844e-05,3.851862857118249e-05
-4.833755883737467e-05,2.8753629521816038e-05,-2.5896755687426776e-05,3.736711369128898e-05
-5.018609590479173e-05,3.602886863518506e-05,-3.0860919650876895e-05,3.1056395528139547e-05
-5.446004797704518e-05,3.8549067539861426e-05,-3.4034866985166445e-05,2.7821975891129114e-05
-5.556195173994638e-05,3.615976675064303e-05,-3.691572055686265e-05,2.789341851894278e-05
-5.783179949503392e-05,3.284292688476853e-05,-3.956541695515625e-05,2.4108343495754525e-05
-6.193921581143513e-05,3.287876461399719e-05,-3.882620876538567e-05,2.04911339096725e-05
-5.89277915423736e-05,3.4571079595480114e-05,-3.6591409298125654e-05,2.216955181211233e-05
-5.483333734446205e-05,3.2191815989790484e-05,-3.537890734151006e-05,2.211030550824944e-05
-5.759321720688604e-05,2.6696254280977882e-05,-3.695865598274395e-05,2.213519655924756e-05
-6.282149843173102e-05,2.6937603252008557e-05,-3.943412593798712e-05,2.2228510715649463e-05
-6.557996675837785e-05,3.249933070037514e-05,-4.106951382709667e-05,1.7132140783360228e-05
-6.6149870690424e-05,3.3428405004087836e-05,-4.3004165490856394e-05,1.4229903172235936e-05
-6.28926936769858e-05,2.9591767088277265e-05,-4.10375687351916e-05,1.7679956727079116e-05
-5.478439561557025e-05,2.426751598250121e-05,-2.528386721678544e-05,2.223122282885015e-05
-4.7843197535257787e-05,2.3969667381606996e-05,5.231573595665395e-06,2.6572306524030864e-05
-4.666307722800411e-05,2.9313296181499027e-05,2.897300146287307e-05,3.407425174373202e-05
-5.2020481234649196e-05,3.647671110229567e-05,2.815665357047692e-05,4.074921162100509e-05
-5.91074422118254e-05,3.845866012852639e-05,3.931604624085594e-06,4.186428850516677e-05
-6.11198483966291e-05,3.411032594158314e-05,-3.560452023521066e-05,4.042929140268825e-05
-5.6737415434326977e-05,3.0139266527839936e-05,-7.99763438408263e-05,3.935944914701395e-05
-4.988345244782977e-05,3.077890505664982e-05,-0.00012086547940270975,3.743097840924747e-05
-4.486865145736374e-05,3.59301375283394e-05,-0.00015398046525660902,3.281445970060304e-05
-4.271766738384031e-05,4.0582795918453485e-05,-0.000171427964232862,2.6952689950121567e-05
-4.185483339824714e-05,4.077715857420117e-05,-0.00015283246466424316,2.0924300770275295e-05
-3.733722405740991e-05,3.803650542977266e-05,-8.875672938302159e-05,1.3851233234163374e-05
-3.374645166331902e-05,3.610441126511432e-05,-1.2660205356951337e-05,6.625886726396857e-06
-4.181138865533285e-05,3.682172973640263e-05,2.8614587790798396e-05,2.5483761874056654e-06
-4.958195859217085e-05,4.332515527494252e-05,3.1146373657975346e-05,1.7144349158115801e-06
-4.706463369075209e-05,5.178818537387997e-05,2.1244290110189468e-05,1.2779723874700721e-06
-4.105337939108722e-05,5.5358923418680206e-05,1.5770432582939975e-05,1.4147028650768334e-06
-3.9940368878887966e-05,5.3547420975519344e-05,1.4224845472199377e-05,5.650225830322597e-06
-4.487783007789403e-05,4.576247374643572e-05,1.5428160622832365e-05,1.101437555917073e-05
-5.01234462717548e-05,3.209349961252883e-05,2.1326774003682658e-05,1.722179149510339e-05
-4.964160325471312e-05,2.256771404063329e-05,2.502030838513747e-05,2.508581201254856e-05
-4.8607762437313795e-05,1.68979458976537e-05,2.0496067008934915e-05,2.9285685741342604e-05
-5.448090814752504e-05,9.580427104083356e-06,9.840277925832197e-06,3.221586302970536e-05
-5.8951060054823756e-05,6.397786364686908e-06,-9.271503387253688e-08,3.252861279179342e-05
-5.528211477212608e-05,1.0171846952289343e-05,-1.1250276656937785e-05,3.145788286929019e-05
-4.710016946773976e-05,1.638010871829465e-05,-2.6953448468702845e-05,3.1211035093292594e-05
-4.215963781462051e-05,2.20577039726777e-05,-3.635843677329831e-05,2.983751255669631e-05
-4.227126555633731e-05,2.119353666785173e-05,-2.7298736313241534e-05,2.508434045012109e-05
-4.429660475580022e-05,1.4595104403269943e-05,-4.809740858036093e-06,2.0067622244823724e-05
-4.615299985744059e-05,1.3106773621984757e-05,8.884432645572815e-06,1.892480577225797e-05
-4.816958244191483e-05,2.010655043704901e-05,3.6956391795683885e-06,2.307210525032133e-05
-4.646785600925796e-05,2.685914296307601e-05,-1.212006918649422e-05,2.7223477445659228e-05
-4.361613900982775e-05,2.407999272691086e-05,-2.9874234314775094e-05,2.753539229161106e-05
-4.62409807369113e-05,1.2255721230758354e-05,-4.981383608537726e-05,2.3844122551963665e-05
-4.8479309043614194e-05,-9.717227840155829e-07,-6.962452607695013e-05,1.7306316294707358e-05
-4.466492828214541e-05,-9.22748677112395e-06,-8.379024075111374e-05,1.2638248335861135e-05
-4.094731048098765e-05,-1.0746903171821032e-05,-8.592547237640247e-05,1.3845341527485289e-05
-4.181735494057648e-05,-5.746038823417621e-06,-7.159529195632786e-05,1.8422673747409135e-05
-4.400417674332857e-05,3.1048059554450447e-06,-4.897233156953007e-05,1.845640508690849e-05
-4.382123734103516e-05,1.1017336873919703e-05,-2.8513733923318796e-05,1.3855851648258977e-05
-4.193955464870669e-05,1.5008638001745567e-05,-1.4812142580922227e-05,1.1826362424471881e-05
-4.270352656021714e-05,1.84259897650918e-05,-1.0060083695861977e-05,1.4335748346638866e-05
-4.753465691464953e-05,2.574775498942472e-05,-1.1981273019046057e-05,1.7427344573661685e-05
-5.260049147182144e-05,3.344962897244841e-05,-1.3766489246336278e-05,1.6326030163327232e-05
-5.217744910623878e-05,3.86703250114806e-05,-1.3457387467497028e-05,1.3446293451124802e-05
-4.989329318050295e-05,4.093361712875776e-05,-1.5979609088390134e-05,1.5744788470328785e-05
-4.5918099203845486e-05,4.1193936340278015e-05,-1.795944626792334e-05,2.1626196030410938e-05
-4.310267831897363e-05,4.2739560740301386e-05,-1.4408637980523054e-05,2.702747042349074e-05
-4.584178896038793e-05,4.1722101741470397e-05,-1.045024509949144e-05,3.060666858800687e-05
-5.281524499878287e-05,3.870220825774595e-05,-1.5197324501059484e-05,3.365899101481773e-05
-5.538951882044785e-05,3.329734317958355e-05,-2.525266791053582e-05,3.164242662023753e-05
-5.001757017453201e-05,2.859833875845652e-05,-2.6275451091350988e-05,2.991851397382561e-05
-4.508734855335206e-05,2.5354775061714463e-05,-1.6583095202804543e-05,2.993194357259199e-05
-4.636426820070483e-05,2.2837912183604203e-05,8.197695933631621e-06,3.270900924690068e-05
-4.767539940075949e-05,2.0237781427567825e-05,6.009247954352759e-05,3.4736985980998725e-05
-4.274921593605541e-05,1.9788883946603164e-05,0.000121578254038468,3.682856186060235e-05
-3.662841481855139e-05,1.684431845205836e-05,0.00014721867046318948,3.926676799892448e-05
-2.9889102734159678e-05,1.2358357253106078e-06,0.00012195875024190173,3.853929592878558e-05
-2.3635078832739964e-05,-1.593120578036178e-05,6.54846298857592e-05,3.411967554711737e-05
-1.6737403711886145e-05,-9.97470851871185e-06,4.5633962031388364e-07,2.756873618636746e-05
-1.2037208762194496e-05,2.361236693104729e-05,-7.1501694037579e-05,2.6227393391309306e-05
-1.2419623999448959e-05,6.0247595683904365e-05,-0.00014556583482772112,3.1989256967790425e-05
-1.6491558199049905e-05,8.053394412854686e-05,-0.00018538629228714854,4.0434213588014245e-05
-2.0459106963244267e-05,8.271588740171865e-05,-0.0001462974469177425,4.320892185205594e-05
-2.3362923457170837e-05,7.11517859599553e-05,-3.091178587055765e-05,4.3060092139057815e-05
-2.6233241442241706e-05,4.8700818297220394e-05,8.58754210639745e-05,4.091589289600961e-05
-2.852936631825287e-05,1.8947435819427483e-05,0.0001299791329074651,3.603400182328187e-05
-3.621692303568125e-05,-1.1103345968876965e-05,9.81712801149115e-05,2.7193100322620012e-05
-5.3459993068827316e-05,-2.2392776372726075e-05,2.7290370780974627e-05,1.579672607476823e-05
-7.10846870788373e-05,-6.782509899494471e-06,-6.0857284552184865e-05,9.264248546969611e-06
-8.236263238359243e-05,2.336162651772611e-05,-0.00014887921861372888,1.5104088561201934e-05
-8.870392775861546e-05,4.9192494770977646e-05,-0.00021876000391785055,2.9148413887014613e-05
-9.347804734716192e-05,6.775724614271894e-05,-0.000256617262493819,4.2070692870765924e-05
-9.748268348630518e-05,7.974446634761989e-05,-0.00020964123541489244,4.47825514129363e-05
-9.639502241043374e-05,8.590161451138556e-05,-8.063729183049873e-05,3.860187280224636e-05
-8.968374459072948e-05,8.736072777537629e-05,2.8574795578606427e-05,2.8001128157484345e-05
-8.370226714760065e-05,7.314739923458546e-05,4.474896559258923e-05,2.0621026123990305e-05
-7.784139597788453e-05,4.9221252993447706e-05,2.63826723312377e-06,1.9675209841807373e-05
-7.002415804890916e-05,3.7773283111164346e-05,-5.5666414482402615e-06,2.163182944059372e-05
-6.51934024062939e-05,4.180621908744797e-05,2.9132763302186504e-05,2.3915508791105822e-05
-5.813636016682722e-05,4.546777927316725e-05,5.8065448683919385e-05,2.8116406610934064e-05
-5.049148967373185e-05,4.076866389368661e-05,4.042261571157724e-05,3.581933560781181e-05
-4.487208207137883e-05,3.613039734773338e-05,1.0645312613632996e-05,4.184684803476557e-05
-4.328481008997187e-05,4.7671313950559124e-05,2.760048118943814e-07,4.304173489799723e-05
-4.703469676314853e-05,7.103973621269688e-05,-3.537556767696515e-05,3.9942595321917906e-05
-5.5728753068251535e-05,8.779048948781565e-05,-0.0001168181624962017,3.949977326556109e-05
-6.621886132052168e-05,8.512647764291614e-05,-0.00019256903033237904,4.175346839474514e-05
-7.241493585752323e-05,5.956771201454103e-05,-0.00020311507978476584,3.707945143105462e-05
-7.223985448945314e-05,2.2680014808429405e-05,-0.00015116948634386063,2.0470026356633753e-05
-7.11198226781562e-05,-8.935598998505156e-07,-8.333443838637322e-05,1.7517660353405518e-06
-7.161698158597574e-05,-1.1923514620093556e-08,-3.657347406260669e-05,-1.0103934982907958e-05
-6.699704681523144e-05,8.448163498542272e-06,1.4065067261981312e-05,-1.5417495887959376e-05
-6.218386988621205e-05,8.837303539621644e-06,7.637059752596542e-05,-1.8499427824281156e-05
-6.304572889348492e-05,6.893374575156486e-06,9.802234853850678e-05,-2.2866866856929846e-05
-6.81586388964206e-05,8.697654266143218e-06,5.731729106628336e-05,-2.508265788492281e-05
-7.454471051460132e-05,1.1794102647399995e-05,4.120163794141263e-06,-3.008890780620277e-05
-7.918803748907521e-05,1.1124056072731037e-05,3.030943958037824e-07,-4.953353345626965e-05
-7.859789184294641e-05,1.2640850400202908e-05,5.014890484744683e-05,-5.95871388213709e-05
-7.41605254006572e-05,2.5321287466795184e-05,7.047546387184411e-05,-3.52517599822022e-05
-6.956154538784176e-05,4.219440961605869e-05,1.1630208064161707e-05,1.1733248356904369e-05
-6.715898052789271e-05,4.762495154864155e-05,-6.568746903212741e-05,4.9086069338954985e-05
-6.532404950121418e-05,4.556443673209287e-05,-0.0001211152775795199,6.278167711570859e-05
-5.558892371482216e-05,4.6910816308809444e-05,-0.00015983336197678,5.56855411559809e-05
-3.7486865039682016e-05,4.4939384679310024e-05,-0.00017841295630205423,3.5787579690804705e-05
-1.9574701582314447e-05,3.3902622817549855e-05,-0.000171228006365709,1.7855856640380807e-05
-4.300494765629992e-06,6.4331961766583845e-06,-0.00012276085908524692,6.1402110986819025e-06
4.682198323280318e-06,-2.9829676350345835e-05,-5.664009222527966e-05,5.374263764679199e-06
6.882699381094426e-06,-6.099146412452683e-05,-1.557861833134666e-05,9.785911970539019e-06
9.990254511649255e-06,-8.184885518858209e-05,-6.1352006923698355e-06,1.4119356819719542e-05
1.4342174836201593e-05,-8.852742030285299e-05,-1.3251081327325664e-05,1.8758250007522292e-05
1.7687723811832257e-05,-6.996476440690458e-05,-2.2770869691157714e-05,2.2210278984857723e-05
2.0718633095384575e-05,-3.5303532058605924e-05,-3.0482706279144622e-05,2.3171269276645035e-05
2.5357889171573333e-05,-4.470737621886656e-06,-3.442922388785519e-05,2.6567700842861086e-05
3.058673974010162e-05,1.2631095160031691e-05,-3.531586116878316e-05,3.5151624615537e-05
3.234994437661953e-05,1.738806167850271e-05,-3.543369530234486e-05,4.521664959611371e-05
2.6955065550282598e-05,1.3321957339940127e-05,-3.3165255445055664e-05,5.564415914705023e-05
1.55864363478031e-05,8.059358151513152e-06,-2.618301186885219e-05,6.260469672270119e-05
-1.032080717777717e-06,2.4388280507992022e-05,-2.400834455329459e-05,6.362843123497441e-05
-3.002421544806566e-05,6.618254701606929e-05,-3.118404492852278e-05,6.50515066809021e-05
-7.170834578573704e-05,0.00010373481927672401,-3.8801561458967626e-05,6.843583832960576e-05
-0.00010530426516197622,9.483323083259165e-05,-3.770837793126702e-05,6.662701343884692e-05
-0.00011424688273109496,1.5258526218531188e-05,-2.8677790396614e-05,5.9970472648274153e-05
-0.00010856518929358572,-0.00010907617979682982,-1.4144874512567185e-05,4.463219738681801e-05
-0.00010031322744907811,-0.0001805260981200263,8.730149602342863e-06,1.9968276319559664e-05
-9.206143295159563e-05,-0.00013640437100548297,3.740922693395987e-05,-7.728652235527989e-06
-8.380661893170327e-05,-1.923647323565092e-05,5.4290128900902346e-05,-2.454798959661275e-05
-8.191727101802826e-05,9.204851085087284e-05,4.015352897113189e-05,-1.792267539713066e-05
-8.667351357871667e-05,0.00014480197569355369,3.5726661735679954e-06,-2.634619988839404e-07
-9.346161095891148e-05,0.00016826397040858865,-2.8953991204616614e-05,1.7285497960983776e-05
-0.00010254974768031389,0.00019949511624872684,-5.930599581915885e-05,3.065255441470072e-05
-0.00010734661191236228,0.00022415882267523557,-8.112325303955004e-05,3.2331401598639786e-05
-9.943144686985761e-05,0.00023300493194255978,-7.466665556421503e-05,2.529618541302625e-05
-8.365153917111456e-05,0.00022875740251038224,-4.622197229764424e-05,1.838315984059591e-05
-7.743947207927704e-05,0.0002384357649134472,-1.8555394490249455e-05,1.569063897477463e-05
-8.779072959441692e-05,0.00025745361926965415,4.082507985003758e-06,1.4847882994217798e-05
-0.00010418870078865439,0.0002534454979468137,2.186761594202835e-05,1.4221595847629942e-05
-0.00010951855074381456,0.0002001183311222121,2.433648296573665e-05,1.4801865290792193e-05
-9.662072261562571e-05,0.00011634642578428611,2.7771477107307874e-05,1.891786632768344e-05
-7.309876673389226e-05,5.4717998864362016e-05,4.3912932596867904e-05,2.6474854166735895e-05
-4.949280264554545e-05,4.394111965666525e-05,5.6247212341986597e-05,3.468712748144753e-05
-3.142864443361759e-05,6.423287413781509e-05,4.0700579120311886e-05,3.9124683098634705e-05
-1.7122578356065787e-05,7.351434760494158e-05,-6.8350977926456835e-06,3.8669881178066134e-05
-4.57277337773121e-06,4.60523551737424e-05,-6.589794793399051e-05,3.598797775339335e-05
1.0204632417298853e-05,-6.400986421795096e-06,-0.00012201760546304286,3.540494435583241e-05
2.859521919162944e-05,-3.393010047147982e-05,-0.0001640307018533349,3.917800495401025e-05
4.44758843514137e-05,-1.3357188436202705e-05,-0.00014962497516535223,4.458835974219255e-05
5.2707866416312754e-05,2.163056342396885e-05,-5.8405705203767866e-05,4.604459900292568e-05
5.409631194197573e-05,2.7958076316281222e-05,6.41585502307862e-05,4.204072683933191e-05
4.641560008167289e-05,4.5500209466808883e-07,0.00019994296599179506,3.398933040443808e-05
3.1223804398905486e-05,-4.932312003802508e-05,0.00035925168776884675,1.9420433090999722e-05
1.3126361409376841e-05,-0.000118664676847402,0.00046724200365133584,5.2363311624503694e-06
-7.440663921443047e-06,-0.0002046225854428485,0.000418348383391276,8.348225492227357e-06
-2.6678137146518566e-05,-0.0002622916654217988,0.00022641215764451772,3.33816024067346e-05
-4.011332930531353e-05,-0.000263282039668411,-2.7989925001747906e-05,6.909032526891679e-05
-3.5804605431621894e-05,-0.00019158520444761962,-0.00027156315627507865,9.19396334211342e-05
-3.0487939511658624e-05,-7.635272777406499e-05,-0.00047508825082331896,8.488800813211128e-05
-5.034727291786112e-05,3.669092257041484e-05,-0.0005319929332472384,5.789716306026094e-05
-0.00010011453559854999,0.00015304786211345345,-0.000371395202819258,3.150838165311143e-05
-0.00016306471661664546,0.00024541548918932676,-0.00014496446237899363,1.6609283193247393e-05
-0.00020886091806460172,0.0002700770564842969,1.406894989486318e-05,1.6524370494153118e-06
-0.0002129268686985597,0.0002510572667233646,6.996601587161422e-05,-9.316197974840179e-06
-0.00017497291264589876,0.00023071510076988488,4.9702139222063124e-05,-1.0428003406559583e-05
-0.0001305674231844023,0.0002054115611827001,-5.558986231335439e-06,-1.2817507922591176e-05
-0.00010389449744252488,0.00016068156401161104,-3.738035593414679e-05,-1.6158366634044796e-05
-9.418462286703289e-05,8.229621016653255e-05,-4.116598574910313e-05,-8.55062717164401e-06
-8.785531099420041e-05,-2.7641859560390003e-05,-4.0013612306211144e-05,4.933373020321596e-06
-8.563452865928411e-05,-0.00013153786130715162,-4.909975905320607e-05,8.839064321364276e-06
-9.52757109189406e-05,-0.000170623286976479,-7.677014218643308e-05,6.9878688009339385e-06
-0.00011396892659831792,-0.00013414202840067446,-0.00012485319166444242,8.447768777841702e-06
-0.00012879731366410851,-7.026430102996528e-05,-0.00017593543452676386,9.810879419092089e-06
-0.00013214049977250397,-1.8958055079565383e-05,-0.00018641137285158038,5.260677426122129e-06
-0.00012427230831235647,2.2340960640576668e-05,-0.00015661738871131092,1.5277681768566254e-06
-0.00010600873793009669,6.590741395484656e-05,-0.00011970181367360055,6.191623924678424e-06
-8.499311661580577e-05,0.00011246275971643627,-9.806646994547918e-05,1.6410685930168256e-05
-6.552592822117731e-05,0.00015196048479992896,-7.907923281891271e-05,2.1890418793191202e-05
-5.293849608278833e-05,0.000166547586559318,-6.222810770850629e-05,1.827017513278406e-05
-5.2556591981556267e-05,0.00015414925292134285,-5.192240496398881e-05,1.0797168215503916e-05
-5.53434292669408e-05,0.00013407498772721738,-4.226340388413519e-05,1.077286469808314e-05
-5.296744348015636e-05,0.00012290102313272655,-1.639719084778335e-05,1.761187013471499e-05
-4.624375651474111e-05,9.880608558887616e-05,1.0642917914083228e-05,2.355802098463755e-05
-3.304624624433927e-05,3.353882857481949e-05,2.029095048783347e-05,2.3498932932852767e-05
-2.4550326997996308e-05,-4.11083638027776e-05,1.4649323929916136e-05,1.9282146240584552e-05
-1.8543263649917208e-05,-8.79072758834809e-05,1.8394648577668704e-05,1.6954994862317108e-05
-9.546704859531019e-06,-0.00012362167763058096,3.4084176149917766e-05,2.06144577532541e-05
-5.092077572044218e-06,-0.00014665928028989583,5.233573028817773e-05,2.7670619601849467e-05
-7.571556579932803e-06,-0.0001313628745265305,6.058127110009082e-05,3.0359267839230597e-05
-1.6157377103809267e-05,-9.062620665645227e-05,5.5653250456089154e-05,2.9123928470653482e-05
-2.6254736440023407e-05,-6.638504419242963e-05,3.94892122130841e-05,2.9965598514536396e-05
-2.896630576287862e-05,-8.681148028699681e-05,1.5857767721172422e-05,3.247348649892956e-05
-1.9491941202431917e-05,-0.00013795102131552994,-7.836502845748328e-06,3.1849544029682875e-05
-9.219183993991464e-06,-0.00016667578893247992,-2.3859975044615567e-05,2.8311620553722605e-05
-8.41879409563262e-06,-0.00013967027189210057,-2.0214651158312336e-05,2.712930836423766e-05
-1.370340851281071e-05,-6.300169479800388e-05,1.3624518032884225e-05,3.099975219811313e-05
-1.895106106530875e-05,4.2794988985406235e-05,6.708822184009477e-05,3.4600412618601695e-05
-2.4487251721438952e-05,0.00015527583309449255,9.72779598669149e-05,3.3540560252731666e-05
-2.8182386813568883e-05,0.0002435169881209731,7.722227019257843e-05,2.8692378691630438e-05
-2.5497525712125935e-05,0.0002658468147274107,1.6736896213842556e-05,2.523756484151818e-05
-1.3732261322729755e-05,0.0002090760535793379,-4.9333346396451816e-05,2.501254675735254e-05
2.771463186945766e-06,0.00011578210251173005,-0.00010327229392714798,2.727391074586194e-05
1.5662781152059324e-05,4.156577051617205e-05,-0.0001420894986949861,3.02985827147495e-05
2.1881687644054182e-05,-4.651522260701313e-07,-0.00014410007861442864,3.122084308415651e-05
2.141729237337131e-05,-1.8027572878054343e-05,-9.383775613969192e-05,2.9828841434209608e-05
1.5402494682348333e-05,-2.4313241738127545e-05,-5.4561489378102124e-05,2.514505831641145e-05
1.3351874258660246e-05,-2.4365972421946935e-05,-6.561921327374876e-05,2.0800989659619518e-05
1.8316608475288376e-05,-1.0308138371328823e-05,-9.65962972259149e-05,2.4969756850623526e-05
2.5210549210896716e-05,2.532915459596552e-06,-9.53314738580957e-05,3.453564568189904e-05
3.1691353797214106e-05,-4.360906586953206e-06,-3.422527151997201e-05,3.647335324785672e-05
2.8623886464629322e-05,-8.283204806502908e-06,5.087234967504628e-05,2.914264587161597e-05
1.3386466889642179e-05,4.23056808358524e-05,8.556396642234176e-05,2.6347448510932736e-05
-1.525035531813046e-05,0.00014424313849303871,6.19442798779346e-05,2.7810998290078714e-05
-5.7568253396311775e-05,0.0002388543653069064,3.668033969006501e-05,2.831419806170743e-05
-0.00010123323590960354,0.00029263721080496907,2.7426378437667154e-05,2.669385685294401e-05
-0.0001280551077798009,0.00030617747688665986,1.6085352399386466e-05,1.850670923886355e-05
-0.00014584579912479967,0.0002942097489722073,-2.025779167524888e-06,8.167921805579681e-06
-0.0001581912802066654,0.00025533270672895014,-1.3231081538833678e-05,2.1923124222666956e-06
-0.00015510278171859682,0.00019293106743134558,-1.9960863937740214e-05,3.8662715269310866e-06
-0.00014162376464810222,0.00012421573046594858,-2.4149296223185956e-05,1.2010765203740448e-05
-0.00012313149636611342,6.117318116594106e-05,-2.176737689296715e-05,2.389197106822394e-05
-0.00010745233885245398,-2.705943870751071e-06,-1.1958006325585302e-05,3.614438173826784e-05
-9.575251169735566e-05,-7.338012073887512e-05,-2.53396342486667e-06,4.3606396502582356e-05
-8.866940333973616e-05,-0.00012461534061003476,3.900386673194589e-06,4.395451833261177e-05
-8.378660277230665e-05,-0.00012931323726661503,6.5859312599059194e-06,4.0123402868630365e-05
-7.913884473964572e-05,-0.00010348889918532223,3.7966217405482894e-06,3.481250678305514e-05
-7.236029341584072e-05,-8.832082676235586e-05,-3.5053860756306676e-06,2.9796259696013294e-05
-6.35991309536621e-05,-9.181953646475449e-05,-1.3551632946473546e-05,2.6824487576959655e-05
-5.5896147387102246e-05,-9.1783374955412e-05,-2.1348019799916074e-05,2.570244214439299e-05
-5.0563488912303e-05,-7.70576880313456e-05,-2.1879484847886488e-05,2.130865686922334e-05
-4.765790072269738e-05,-5.910980689805001e-05,-1.8901529983850196e-05,1.213709492731141e-05
-4.704549792222679e-05,-4.7168938181130216e-05,-2.0616167603293434e-05,6.941328138054814e-06
-4.700025237980299e-05,-3.781822306336835e-05,-2.5259912945330143e-05,9.95500431599794e-06
-4.271282159606926e-05,-2.534310806368012e-05,-2.7604759452515282e-05,1.6582855096203275e-05
-3.559868855518289e-05,-1.1126147001050413e-05,-2.7883703296538442e-05,2.104503073496744e-05
-3.020806070708204e-05,1.2827861155528808e-06,-2.8657212169491686e-05,2.1157946321181953e-05
-2.3672762836213224e-05,6.386817858583527e-06,-2.6568724933895282e-05,1.9889352188329212e-05
-1.7796810425352305e-05,5.1956220659121755e-08,-2.617941026983317e-05,2.031400981650222e-05
-2.1935495169600472e-05,-1.185519158752868e-05,-2.8137352273915894e-05,2.420610144326929e-05
-3.217175981262699e-05,-1.583448647579644e-05,-3.0897233955329284e-05,2.761798350547906e-05
-4.1966668504755944e-05,-1.3486076568369754e-05,-3.284462582087144e-05,2.6826315661310218e-05
-4.398922828841023e-05,-1.2567995327117387e-05,-3.332538472022861e-05,2.641029095684644e-05
-4.0071841794997454e-05,-9.583812243363354e-06,-3.668494537123479e-05,2.661055259522982e-05
-3.7725763831986114e-05,-1.8733442175289383e-06,-3.799700425588526e-05,2.5330500648124143e-05
-3.9793729229131714e-05,3.934258529625367e-06,-3.6037683457834646e-05,2.3304692149395123e-05
-4.394603820401244e-05,4.528597855824046e-06,-3.8155249058036134e-05,2.0995990780647844e-05
-4.626120426109992e-05,6.336499154713238e-06,-4.788637670571916e-05,2.029603456321638e-05
-4.9052057875087485e-05,9.953505468729418e-06,-6.534672866109759e-05,2.2331103536998853e-05
-5.242786573944613e-05,1.2473723472794518e-05,-7.88845427450724e-05,2.659542951732874e-05
-5.118966873851605e-05,1.3552716154663358e-05,-8.53641759022139e-05,3.020762414962519e-05
-4.1721388697624207e-05,1.3820608728565276e-05,-8.686741784913465e-05,3.0147359211696312e-05
-3.0277602490969002e-05,1.3002188097743783e-05,-8.470003376714885e-05,2.9740733225480653e-05
-2.566244984336663e-05,1.3720851711696014e-05,-8.00368216005154e-05,3.221881343051791e-05
-2.6401461582281627e-05,1.8011322026723064e-05,-7.28797385818325e-05,3.547826418071054e-05
-2.4913897505030036e-05,2.5850935344351456e-05,-6.212390144355595e-05,3.804652442340739e-05
-2.0809515262953937e-05,3.5395798477111384e-05,-4.08125197282061e-05,3.9883092540549114e-05
-1.4029631529410835e-05,4.4584878196474165e-05,-1.3135902008798439e-05,3.957854278269224e-05
-4.959575107932324e-06,5.9146641433471814e-05,1.0152774848393165e-05,3.81087047571782e-05
-4.894051244264119e-07,8.234262350015342e-05,2.8532283977256157e-05,3.7795474781887606e-05
-1.4040658697922481e-06,0.00010923910303972661,4.709029963123612e-05,4.0018665458774194e-05
-4.449865173228318e-06,0.0001383652852382511,6.0557908000191674e-05,4.130127126700245e-05
-9.930071428243537e-06,0.00016327218327205628,6.0844813560834154e-05,3.615155947045423e-05
-2.1628031390719116e-05,0.0001680547429714352,4.6891163947293535e-05,2.6445475668879226e-05
-3.6327070120023564e-05,0.0001408508251188323,2.681042496988084e-05,1.910056744236499e-05
-4.6678211219841614e-05,9.781453263713047e-05,5.084374151920201e-06,1.566927312524058e-05
-5.120483911014162e-05,7.456673483829945e-05,-9.115638022194616e-06,1.5250454453052953e-05
-5.6671357015147805e-05,6.355760706355795e-05,-2.001549546548631e-05,1.5867644833633676e-05
-6.463507452281192e-05,4.028297189506702e-05,-2.8649235900957137e-05,1.8489014109945856e-05
-7.279372221091762e-05,2.940805825346615e-05,-3.5404842492425814e-05,2.3802876967238262e-05
-7.864549843361601e-05,4.95775711897295e-05,-4.150308086536825e-05,2.2368938516592607e-05
-7.587015716126189e-05,6.868328637210652e-05,-4.4835356675321236e-05,1.743650318530854e-05
-6.993312854319811e-05,6.93454931024462e-05,-4.368133522802964e-05,1.6318203051923774e-05
-6.803363794460893e-05,7.138241198845208e-05,-3.2650645152898505e-05,1.727769813442137e-05
-7.289238419616595e-05,7.83583745942451e-05,-1.6758473066147417e-05,1.7071892216335982e-05
-7.485206151613966e-05,7.511628791689873e-05,-9.224064342561178e-06,1.6000960386008956e-05
-6.746288272552192e-05,5.148202762939036e-05,-2.4330618543899618e-05,1.6517500625923276e-05
-5.8941881434293464e-05,1.966462514246814e-05,-5.657659858115949e-05,1.7406931874575093e-05
-5.988370321574621e-05,-1.8799438521455158e-06,-9.001385478768498e-05,1.5739125956315547e-05
-6.402051803888753e-05,-1.322429034189554e-05,-0.00011036810610676184,1.0743990060291253e-05
-5.947940735495649e-05,-2.7120138838654384e-05,-0.00010998512152582407,6.833930001448607e-06
-4.8209614760708064e-05,-4.818576417164877e-05,-8.659259765408933e-05,7.314725735341199e-06
-4.1111099562840536e-05,-6.433980888687074e-05,-5.09153469465673e-05,1.0474369446455967e-05
-4.0064132917905226e-05,-6.382976425811648e-05,-1.9690340195666067e-05,9.547577974444721e-06
-3.800529157160781e-05,-4.4726319174515083e-05,-1.8328441910853144e-06,5.093342679174384e-06
-3.685965566546656e-05,-1.0196477887802757e-05,2.8685442430287367e-06,3.961863512813579e-06
-4.01109537051525e-05,2.8267020752537064e-05,-5.399216433943366e-07,6.968466095713666e-06
-4.43645149061922e-05,5.4845480917720124e-05,-5.4142710723681375e-06,1.0694490811147261e-05
-4.4916192564414814e-05,7.115338667063043e-05,-1.2760710887960158e-05,1.3597857105196454e-05
-4.4519027142087e-05,7.923446537461132e-05,-2.425785169180017e-05,1.5643179722246714e-05
-4.312639794079587e-05,7.52468840801157e-05,-3.0403029086301103e-05,1.5953119145706296e-05
-4.6896642743377015e-05,6.111855327617377e-05,-2.849528391379863e-05,1.6568503269809298e-05
-6.325081631075591e-05,4.050310599268414e-05,-2.7367399525246583e-05,1.5240653738146648e-05
-7.722830923739821e-05,1.1279544196440838e-05,-3.0430644983425736e-05,1.4103112334851176e-05
-7.372190884780139e-05,-1.7907394067151472e-05,-3.3004624128807336e-05,1.6844443962327205e-05
-5.987650001770817e-05,-2.1468558770720847e-05,-3.3770553272916004e-05,2.023374690907076e-05
-4.407040250953287e-05,-9.820235391089227e-06,-3.296400245744735e-05,2.3913191398605704e-05
-3.186158573953435e-05,-6.7649484662979376e-06,-2.727687569858972e-05,2.9210939828772098e-05
-2.5373101379955187e-05,-1.0332676538382657e-05,-2.251731166325044e-05,3.792568531935103e-05
-1.651718412176706e-05,-1.8370805264567025e-05,-2.643486914166715e-05,4.212763815303333e-05
-1.3587649050350592e-07,-1.521920148661593e-05,-4.124565020902082e-05,4.37408743891865e-05
1.2566494660859462e-05,5.184741439734353e-06,-7.436755549861118e-05,4.675360833061859e-05
9.99851090455195e-06,2.7367712391423993e-05,-0.00011418802750995383,4.613521014107391e-05
-8.371914191229735e-06,4.692751099355519e-05,-0.00013313230010680854,4.191120024188422e-05
-2.9968490707688034e-05,7.28974409867078e-05,-0.00012032302765874192,3.872316665365361e-05
-4.5217995648272336e-05,0.00010198619565926492,-8.534706284990534e-05,3.789182301261462e-05
-5.611741653410718e-05,0.00012547540245577693,-5.18413980898913e-05,3.4298696846235543e-05
-6.59297002130188e-05,0.00014021880633663386,-3.4223940019728616e-05,2.7703901650966145e-05
-7.14420311851427e-05,0.00014479299716185778,-1.7024052795022726e-05,2.3425793187925592e-05
-7.47606172808446e-05,0.00014352147991303355,2.2265989173320122e-05,2.3789541955920868e-05
-7.929291314212605e-05,0.00013343727914616466,7.574348273919895e-05,2.4061651856754906e-05
-7.885748345870525e-05,0.00010183834820054471,0.00010432753333589062,2.4270595531561412e-05
-6.843517621746287e-05,5.622183016384952e-05,8.896856161300093e-05,2.3038764993543737e-05
-5.431794488686137e-05,1.2133575182815548e-05,5.785629400634207e-05,2.0156605387455784e-05
-4.738308780360967e-05,-2.642529761942569e-05,3.4734071959974244e-05,2.1558007574640214e-05
-4.722978701465763e-05,-3.496588396956213e-05,1.3964569006930105e-05,2.9175880627008155e-05
-4.6338278480106965e-05,-2.1129855667822994e-05,-5.566685103985947e-06,3.5775759897660464e-05
-3.912051397492178e-05,-1.9250197510700673e-05,-1.057813915394945e-05,3.690983430715278e-05
-2.9431390430545434e-05,-2.8399546863511205e-05,-4.654385520552751e-06,3.538278178893961e-05
-2.7771036911872216e-05,-3.6202465707901865e-05,-9.276512173528317e-06,2.9677097700187005e-05
-4.797786095878109e-05,-3.527021181071177e-05,-2.9619897759403102e-05,2.2658090529148467e-05
-7.387187361018732e-05,-1.3853130440111272e-05,-4.620663821697235e-05,1.7980964912567288e-05
-8.963456639321521e-05,1.8640834241523407e-05,-4.4751912355422974e-05,1.6258367395494133e-05
-9.708541620057076e-05,4.634431752492674e-05,-3.677119457279332e-05,1.7407139239367098e-05
-0.00010500469943508506,7.640356488991529e-05,-3.182060754625127e-05,1.5492192687815987e-05
-0.0001191311384900473,0.00011819483916042373,-2.9702512620133348e-05,1.3298347766976804e-05
-0.00012919705477543175,0.00015249475836753845,-2.8314108931226656e-05,1.2116022844566032e-05
-0.00012359408719930798,0.00014090375043451786,-2.9229948268039152e-05,1.087648342945613e-05
-0.00010772201494546607,9.858335397439077e-05,-3.28525566146709e-05,1.3095338545099366e-05
-9.997805318562314e-05,6.972863047849387e-05,-3.6396355426404625e-05,1.7412970919394866e-05
-9.98017203528434e-05,5.665495336870663e-05,-3.767107773455791e-05,1.9810306184808724e-05
-9.85794176813215e-05,3.554165596142411e-05,-3.7182682717684656e-05,2.016749931499362e-05
-8.711337432032451e-05,3.342438049003249e-06,-3.8822479837108403e-05,1.9214916392229497e-05
-6.522235344164073e-05,-2.42384758166736e-05,-4.108926805201918e-05,1.7900756574817933e-05
-4.172588523942977e-05,-2.6764140784507617e-05,-4.112145325052552e-05,1.652509490668308e-05
-2.8566340915858746e-05,6.292608304647729e-06,-3.857463161693886e-05,1.5436737157870084e-05
-2.5621258828323334e-05,5.349145794752985e-05,-3.540984835126437e-05,1.5989362509571947e-05
-2.468950151524041e-05,8.267378143500537e-05,-3.190031202393584e-05,1.7977656170842238e-05
-2.8251128242118284e-05,8.804587560007349e-05,-3.0872601200826466e-05,2.1917150661465712e-05
-4.1329469240736216e-05,8.531830826541409e-05,-3.3799198718043044e-05,2.7013749786419794e-05
-5.641069947159849e-05,7.67855453887023e-05,-3.4585562389111146e-05,2.9517332222894765e-05
-6.635594763793051e-05,5.9892165154451504e-05,-2.581246917543467e-05,2.6559313482721336e-05
-7.105857366696e-05,4.1032846638699993e-05,-6.954637228773208e-06,2.495891385478899e-05
-6.980069156270474e-05,2.8813516109948978e-05,9.59139742917614e-06,2.6482985049369745e-05
-6.57187047181651e-05,2.8047352316207252e-05,1.1361687938915566e-05,2.7290867365081795e-05
-6.212199514266104e-05,5.017275543650612e-05,5.214043994783424e-06,2.8350403226795606e-05
-6.610728451050818e-05,9.686248085927218e-05,1.4318763533083256e-05,3.386220851098187e-05
-7.126692071324214e-05,0.000120095195597969,2.98559752991423e-05,4.236942913848907e-05
-7.259864651132375e-05,0.00010645912698237225,1.230071848112857e-05,4.644260843633674e-05
-7.346600614255294e-05,7.765455666230991e-05,-2.7770411179517396e-05,4.353741678642109e-05
-6.810983177274466e-05,3.488118090899661e-05,-4.651829294743948e-05,4.035614256281406e-05
-5.945789234829135e-05,-1.570378600490585e-07,-5.1675720897037536e-05,4.280053326510824e-05
-4.8552446969551966e-05,-1.6396978026023135e-05,-5.871455141459592e-05,4.624591383617371e-05
-3.7015863199485466e-05,-1.9968660126323812e-05,-5.2397230319911614e-05,4.122682730667293e-05
-2.9890623409301043e-05,-2.3364031221717596e-05,-4.5100638089934364e-05,3.181774081895128e-05
-2.2679003450321034e-05,-2.689263055799529e-05,-6.330219184746966e-05,2.812492493831087e-05
-1.8711552911554463e-05,-2.379487887083087e-05,-0.00011055280629079789,2.9673805329366587e-05
-1.9979630451416597e-05,-1.5641302525182255e-05,-0.00013716363173443824,3.027256934728939e-05
-2.588906318123918e-05,-1.3534066965803504e-05,-0.00011002465907949954,2.2740516214980744e-05
-3.0020102713024244e-05,-1.657233042351436e-05,-4.987224019714631e-05,8.347933544428088e-06
-2.646882967383135e-05,-1.190509010484675e-05,1.1273704330960754e-05,-5.618469458568143e-06
-1.7745054719853215e-05,-8.292086022265721e-06,4.560289016808383e-05,-1.51295153045794e-05
-8.087294190772809e-06,-2.3613421944901347e-05,4.2957068217219785e-05,-1.7357881006319076e-05
3.663030156531022e-06,-4.929744318360463e-05,1.203758529300103e-05,-7.687704965064768e-06
1.712026642053388e-05,-5.267746382742189e-05,-2.1112289687152952e-05,8.137394615914673e-06
2.5084133085329086e-05,-4.741428347188048e-05,-3.988336902693845e-05,1.890086969069671e-05
2.720439624681603e-05,-7.245076267281547e-05,-4.736882692668587e-05,2.3402879378409125e-05
2.6104973585461266e-05,-0.00011003506369888783,-6.18245467194356e-05,2.386897540418431e-05
2.4912429580581374e-05,-0.00012013658852083609,-8.533206710126251e-05,1.9347671695868485e-05
2.317962935194373e-05,-0.00010761159501271322,-0.00010156822827411816,1.4219454897101969e-05
1.979055377887562e-05,-8.370664727408439e-05,-8.591725782025605e-05,1.3372136891121045e-05
1.614757456991356e-05,-5.234292984823696e-05,-2.9527944207075052e-05,1.0987236237269826e-05
6.418880275305128e-06,-8.099321348709054e-06,3.468191789579578e-05,7.72888870415045e-06
-1.8253103917231783e-05,4.7143847041297704e-05,5.775327008450404e-05,1.0869114703382365e-05
-5.091167622595094e-05,5.4953583457972854e-05,1.9161241652909666e-05,2.8192018362460658e-05
-8.037623774725944e-05,1.962583883141633e-05,-4.3645326513797045e-05,5.1667546358658e-05
-0.00010206002480117604,9.043414138432126e-06,-8.0871359386947e-05,6.35078176856041e-05
-0.00011706403165590018,2.6074550987686962e-05,-7.413811545120552e-05,5.62912282475736e-05
-0.00012537861766759306,5.444018097477965e-05,-2.960317760880571e-05,3.091536564170383e-05
-0.0001258346310351044,8.766362589085475e-05,8.861261449055746e-06,9.043965292221401e-06
-0.00012952412362210453,0.00010771852248581126,9.127523298957385e-06,3.6698679650726262e-06
-0.00013802811736240983,7.856082811485976e-05,-1.8915168766397983e-05,8.47425326355733e-06
-0.00014037384244147688,1.943944334925618e-05,-2.64474638242973e-05,1.5056748452479951e-05
-0.0001311271043960005,-5.509897619049298e-06,2.573328856669832e-05,2.2035976144252345e-05
-0.00010801199096022174,3.61420534318313e-05,0.00012553414853755385,3.0231443815864623e-05
-8.366670954274014e-05,0.00010767511412268505,0.0002053385687759146,3.538369128364138e-05
-7.59821996325627e-05,0.00015711356536485255,0.0001892027648864314,3.358845424372703e-05
-8.43934976728633e-05,0.00018194961012341082,7.60209804866463e-05,2.9950053431093693e-05
-8.818996138870716e-05,0.0002008196315728128,-7.020351040409878e-05,3.197315163561143e-05
-8.289825927931815e-05,0.0002156911214115098,-0.00018084146722685546,3.714436024893075e-05
-7.930079300422221e-05,0.00020376760221552104,-0.00022744297166354954,3.773269054363482e-05
-7.571531023131683e-05,0.00015741714742034674,-0.00021751539316028357,2.9562484996858984e-05
-6.802611460443586e-05,0.00010149450827157125,-0.00017642047896515578,1.8386759620625526e-05
-5.717722524423152e-05,7.88221150287427e-05,-0.00013478114851750433,1.062154296960216e-05
-4.421074845595285e-05,8.941394480643794e-05,-0.00010365522757638246,6.019371539878193e-06
-3.269582157372497e-05,8.364398672711104e-05,-1.6334066458512098e-05,4.1932605654437793e-07
-2.629694608913269e-05,2.829389450198505e-05,0.00011186251504113898,-2.6620834887580713e-06
-2.3714392227702774e-05,-5.9450245316838846e-05,0.00014910733443684876,2.501089511497412e-06
-2.676647636690177e-05,-0.000131681386847049,7.167895091697574e-05,1.5884668755461462e-05
-3.0034667361178435e-05,-0.00014088301395531744,-2.623296677484177e-05,2.628427500894759e-05
-2.5165642000501975e-05,-7.471077697118744e-05,-9.216103353537619e-05,2.902450432884507e-05
-2.1442552679218352e-05,1.1914665265067015e-05,-0.00010243055294267833,3.073668631259352e-05
-2.7490354113979265e-05,6.7008615587838e-05,-4.427494422998279e-05,2.9092638214933686e-05
-3.255036426708102e-05,0.00010474137525307015,2.1301917513483204e-05,2.0572426365106367e-05
-3.4965836675837636e-05,0.00013450720871333033,4.3928415834670886e-05,1.2652064469875768e-05
-4.164949132245965e-05,0.0001377575972583145,9.436000254936516e-06,1.6304238670272753e-05
-4.593799530994147e-05,9.91525303106755e-05,-4.8657773731974885e-05,2.39177043113159e-05
-4.4682346924673766e-05,5.2515290008159354e-05,-8.731592970434576e-05,2.670820504135918e-05
-4.577088839141652e-05,1.918069574458059e-05,-9.194089216180146e-05,2.6651016014511697e-05
-4.9854559620143846e-05,8.980941856862046e-06,-7.804672350175679e-05,2.6851146685658023e-05
-5.277077070786618e-05,2.5946699679479934e-05,-6.611824210267514e-05,2.8015541829518043e-05
-5.4127023759065196e-05,4.8518249968765303e-05,-4.3770593038061634e-05,2.7601099645835347e-05
-5.1444607379380614e-05,5.5313867051154375e-05,7.1265685619437136e-06,2.6608347980072722e-05
-4.5109205530025065e-05,4.580519089358859e-05,7.012001879047602e-05,2.773826963675674e-05
-3.929367085220292e-05,3.694645783980377e-05,9.127928205998614e-05,3.270640081609599e-05
-3.6103218008065596e-05,3.9043188735377043e-05,3.932210893253796e-05,3.7823596358066425e-05
-3.37569581461139e-05,4.249842095305212e-05,-6.18520425632596e-05,4.256514148437418e-05
-3.2311338145518675e-05,2.208250225521624e-05,-0.00014939070388209075,4.733809328172356e-05
-2.9572895073215477e-05,-1.8687585907173343e-05,-0.00017540922272019088,5.0743186875479296e-05
-2.0234625480952673e-05,-5.2796491218032315e-05,-0.00012874856474809349,5.242989573162049e-05
-7.819719940016512e-06,-6.398952245945111e-05,-3.870405271300115e-05,5.081791459815577e-05
3.1535725497633393e-07,-6.91154200467281e-05,4.6145440137479454e-05,4.6157885662978515e-05
5.000383680453524e-06,-8.478537347400561e-05,8.60335276229307e-05,4.459522824618034e-05
7.639010618731845e-06,-0.00011319663462927565,5.625055200653151e-05,4.320990774431266e-05
7.605799964949256e-06,-0.00013216889055911452,-2.56173934758408e-05,3.496532008284703e-05
2.1164939880691236e-06,-0.00013619776291307062,-5.75966332689859e-05,2.1639116312144324e-05
-1.3661412594956346e-05,-0.00012326653813943267,-4.2231176848872565e-06,-3.607419557738467e-06
-2.5531489882268943e-05,-8.26727191451937e-05,4.0010221709962934e-05,-2.2796775738243014e-05
-2.6669174985727295e-05,-4.2911058699246496e-05,1.7657286662142724e-05,-6.00768407821306e-06
-3.142552304780111e-05,-1.9143508325214498e-05,-2.74948342848802e-05,2.6866651751333848e-05
-4.0050948882708326e-05,2.169379877159372e-05,-4.754732799483463e-05,4.5037853851681575e-05
-4.9993312131846324e-05,0.00010074848250951618,-3.925684723071754e-05,4.510559665504843e-05
-5.972956932964735e-05,0.00018113740952685475,-1.4975036719988566e-05,3.414811726543121e-05
-6.180646596476436e-05,0.00020596824469976127,3.947638106183149e-06,2.3044238332659006e-05
-6.643811502726749e-05,0.00017829138960223645,6.9898273977742065e-06,1.7201695300173014e-05
-7.559866935480386e-05,0.0001263791782548651,-3.4455138120392803e-06,1.6911193597479723e-05
-8.395154145546257e-05,7.808394002495334e-05,-1.139544474426657e-05,1.870470805442892e-05
-8.561986760469154e-05,3.411349462112412e-05,-1.4948606803955045e-05,1.671411155257374e-05
-7.794950943207368e-05,-8.731385605642572e-06,-1.8145077774534002e-05,1.3868254427507054e-05
-6.995054718572646e-05,-2.750529529293999e-05,-2.5637747967266478e-05,1.5351715774158947e-05
-6.980936450418085e-05,-1.8286376871401444e-05,-3.242820457671769e-05,1.9866114598698914e-05
-7.218195969471708e-05,-1.1570529750315472e-05,-3.399665729375556e-05,2.2756305043003522e-05
-6.873371603433043e-05,-2.0468007278395817e-05,-3.7100300687598065e-05,2.23923780140467e-05
-6.731510802637786e-05,-1.2552433872770052e-05,-4.593810808728449e-05,2.097618198604323e-05
-7.853568240534514e-05,2.914554534072522e-05,-5.767069524154067e-05,1.9487632016534917e-05
-9.926938218995929e-05,8.219869050662965e-05,-6.480977754108608e-05,1.7626096450840123e-05
-0.00011157908011227846,0.0001238873810507357,-6.538606976391748e-05,1.781865648808889e-05
-0.00010747766646090895,0.00015117488510441035,-6.291266618063673e-05,1.9466320736682974e-05
-9.372935892315581e-05,0.00015336554497480392,-5.6634944485267624e-05,1.902753319882322e-05
-8.45251270220615e-05,0.00013904461229685694,-2.712930836423766e-05,1.7955570001504384e-05
-8.513416105415672e-05,0.00014334225852508098,3.8201716961339116e-05,2.1705107428715564e-05
-9.246394620276988e-05,0.00018063292372971773,9.839384438237175e-05,2.9966289730509743e-05
-9.427065378986299e-05,0.00019795693515334278,0.00010810491221491247,3.542611375451088e-05
-7.941596413729712e-05,0.0001632272033020854,6.689816655125469e-05,3.727295916178264e-05
-6.245821714401245e-05,9.527793008601293e-05,-2.7614947612164542e-05,3.266583371441811e-05
-5.315895759849809e-05,2.4700553694856353e-05,-0.0001574564230395481,2.7358444640412927e-05
-4.5590539230033755e-05,-2.7829401005874388e-05,-0.00023239274742081761,2.5095352611970156e-05
-4.438305404619314e-05,-6.522846524603665e-05,-0.00018097891006618738,2.2673526473226957e-05
-4.5856482756789774e-05,-8.850226731738076e-05,-8.738553151488304e-05,2.108810622303281e-05
-4.3095478758914396e-05,-8.824607357382774e-05,-4.823376366402954e-05,1.6985532056423835e-05
-3.750320684048347e-05,-4.6211651351768523e-05,-4.8522902943659574e-05,1.0027853022620548e-05
-3.429328353377059e-05,3.5973836929770187e-05,-3.8154244975885376e-05,5.086956207378535e-06
-3.3203719794983044e-05,0.00012687408889178187,-5.63349340154673e-06,9.16494809644064e-06
-3.241150625399314e-05,0.00020050442253705114,2.2185164198162965e-05,1.8617780369822867e-05
-3.7753932701889426e-05,0.0002491310006007552,2.4581227989983745e-05,2.4791575924609788e-05
-4.37756534665823e-05,0.00026463204994797707,8.949457878770772e-06,2.1346695575630292e-05
-4.4638927647611126e-05,0.00023754929134156555,-2.354452362851589e-06,1.1313079994579311e-05
-4.0131133573595434e-05,0.0001675128733040765,-9.925278391165193e-06,6.093316187616438e-06
-2.8372456654324196e-05,8.484815043630078e-05,-1.7990489141084254e-05,1.3012293493375182e-05
-1.4862886928312946e-05,2.242236223537475e-05,-2.2093214283813722e-05,2.506131750124041e-05
-7.173768153734272e-06,-2.302697794220876e-05,-1.664202136453241e-05,3.151840064674616e-05
-3.49082870343409e-06,-7.502469816245139e-05,-9.888981367112137e-06,2.9566388548118994e-05
-3.786223956581125e-08,-0.00014435377670452,-8.748019354243297e-06,2.419658085273113e-05
5.374782858780236e-07,-0.00020965577277820557,-1.0727872904681135e-05,2.0493316696956754e-05
-5.754269295721315e-06,-0.00023271604732144624,-1.2420723578543402e-05,2.0279077943996526e-05
-1.6628018784103915e-05,-0.00020283140474930406,-1.8253711459692568e-05,2.342092921026051e-05
-2.6833660740521736e-05,-0.0001320454030064866,-2.7174737624591216e-05,2.8435224521672353e-05
-2.8683967684628442e-05,-3.650040889624506e-05,-3.14354729198385e-05,3.430035576457158e-05
-2.478881651768461e-05,5.8479836297919974e-05,-4.1794392018346116e-05,3.8712634705007076e-05
-2.6487956347409636e-05,0.0001295012334594503,-5.868570224265568e-05,3.987613308709115e-05
-3.9035556255839765e-05,0.0001780064485501498,-5.662523108185269e-05,3.6579524021362886e-05
-6.033181125530973e-05,0.0002334790478926152,-2.81565407931339e-05,2.7077556296717376e-05
-7.053551962599158e-05,0.0002447748265694827,1.677090949669946e-06,1.872575558081735e-05
-6.43045423203148e-05,0.00016859191237017512,1.3555289115174673e-05,1.5576415535178967e-05
-5.5240427172975615e-05,2.9429509595502168e-05,9.835753189690877e-06,1.2585220247274265e-05
-5.3600033425027505e-05,-0.0001251949870493263,-4.871844794251956e-06,1.227894699695753e-05
-5.466036600410007e-05,-0.0002324176748516038,-2.3869881260907277e-05,1.3158121873857453e-05
-4.824032657779753e-05,-0.0002731677086558193,-3.0804942070972174e-05,1.7075515643227845e-05
-4.0741248085396364e-05,-0.00023137021344155073,-2.6267558496329002e-05,2.3729393433313817e-05
-4.248871118761599e-05,-0.00013567664427682757,-2.511441198294051e-05,2.9622580768773332e-05
-5.6907778343884274e-05,-2.455044523230754e-05,-2.828671676979866e-05,2.9684848414035514e-05
-7.239641854539514e-05,7.090702274581417e-05,-2.934083568106871e-05,2.480998773535248e-05
-7.757019920973107e-05,0.00013258401304483414,-2.9873053790652193e-05,1.9731818611035123e-05
-6.990292604314163e-05,0.00016122501983772963,-3.10754039674066e-05,1.7753611246007495e-05
-6.391930219251662e-05,0.00017109389591496438,-2.986640356539283e-05,1.8737509890343063e-05
-6.560551264556125e-05,0.00017390568973496556,-2.752638829406351e-05,2.028408744081389e-05
-7.053725857986137e-05,0.0001523819228168577,-2.4497650883859023e-05,2.1209594706306234e-05
-7.313190144486725e-05,9.478670108364895e-05,-2.0327330275904387e-05,2.0379680790938437e-05
-7.393377018161118e-05,2.4466755348839797e-05,-2.0913892512908205e-05,1.9385110135772265e-05
-7.991970051079988e-05,-2.22765975195216e-05,-2.840517663571518e-05,2.0946294171153568e-05
-8.80646548466757e-05,-3.879372525261715e-05,-3.438063504290767e-05,2.5850760721368715e-05
-8.750388951739296e-05,-1.5252974662871566e-05,-3.1853320251684636e-05,2.801068694679998e-05
-7.84314179327339e-05,3.223950989195146e-05,-2.7745936677092686e-05,2.5980720238294452e-05
-7.042848301352933e-05,4.989045919501223e-05,-2.703278914850671e-05,2.2423120753956027e-05
-6.208611011970788e-05,2.8219539672136307e-05,-2.7416048396844417e-05,2.162691453122534e-05
-5.565433093579486e-05,4.46017747890437e-06,-2.5323171939817257e-05,2.4855169613147154e-05
-5.497480742633343e-05,-1.650304147915449e-05,-2.2980022549745627e-05,2.8962975193280727e-05
-5.731722558266483e-05,-5.1661110774148256e-05,-2.5497991373413242e-05,2.8164715331513435e-05
-5.3449035476660356e-05,-9.764364222064614e-05,-3.103353446931578e-05,2.416194365650881e-05
-4.295904727769084e-05,-0.0001224198640557006,-3.6142184399068356e-05,2.3555610823677853e-05
-3.530790127115324e-05,-0.0001276980765396729,-3.892032691510394e-05,2.7259389753453434e-05
-3.626738543971442e-05,-0.00011077798990299925,-3.912169631803408e-05,2.9103832275723107e-05
-4.211239502183162e-05,-5.288264947012067e-05,-3.834114977507852e-05,2.9141632694518194e-05
-5.191172385821119e-05,3.1026327633298934e-05,-3.689774530357681e-05,2.5519169867038727e-05
-6.142377969808877e-05,9.658187627792358e-05,-3.5640798159874976e-05,1.8925707991002128e-05
-5.642350879497826e-05,0.00011676904978230596,-3.3336174965370446e-05,1.642986353544984e-05
-3.5165670851711184e-05,0.00011752832506317645,-3.0009330657776445e-05,1.913579944812227e-05
-1.3500026398105547e-05,0.00013599306112155318,-2.7578926165006123e-05,2.711648448894266e-05
-1.9166473066434264e-06,0.0001840038748923689,-2.0228984794812277e-05,3.354046566528268e-05
-6.822432965236658e-07,0.00022261789126787335,-9.193205187330022e-06,3.385612944839522e-05
-8.46650709718233e-06,0.00020662453607656062,-2.665871761564631e-06,2.840439265128225e-05
