-3.33008574671112e-05,-5.412228711065836e-05,1.6353326373064192e-06,5.312933353707194e-05
-3.317667142255232e-05,-3.125443299722974e-06,4.6108443712000735e-06,5.601033626589924e-05
-3.301765536889434e-05,1.7864980691228993e-05,2.494723275958677e-06,6.0129183111712337e-05
-3.205601024092175e-05,1.784833330020774e-05,-2.995602926603169e-06,6.118101009633392e-05
-3.0395207431865856e-05,5.224073902354576e-07,-1.2204308404761832e-05,6.250416481634602e-05
-3.020178701262921e-05,-1.3890635273128282e-05,-1.597872505954001e-05,6.164866499602795e-05
-2.870761090889573e-05,-6.339847004710464e-06,-1.2160424375906587e-05,5.8919114962918684e-05
-2.4431783458567224e-05,1.0397343430668116e-05,-6.954309355933219e-06,6.122478953329846e-05
-2.3607391995028593e-05,2.0806088286917657e-05,-5.754943231295329e-06,6.785133882658556e-05
-2.536717329348903e-05,3.435441976762377e-05,-2.810317027979181e-06,6.84742844896391e-05
-2.6784084184328094e-05,5.255669748294167e-05,1.1175922054462717e-06,6.262441456783563e-05
-2.5269690013374202e-05,6.301279790932313e-05,1.0828193808265496e-06,5.754849553341046e-05
-2.4470089556416497e-05,5.81477397645358e-05,2.020398426338943e-07,5.7421235396759585e-05
-2.787022094707936e-05,3.96829163946677e-05,1.4157369321310398e-07,6.21671206317842e-05
-3.420886423555203e-05,2.3434049580828287e-05,-3.648795541266736e-07,6.425898754969239e-05
-3.892215681844391e-05,2.0424582544364966e-05,-2.1901871605223278e-06,6.201086944201961e-05
-3.811873102677055e-05,1.9440903997747228e-05,-4.031083790323464e-06,6.072446922189556e-05
-3.474735785857774e-05,2.6608909138303716e-06,-3.179859049851075e-06,6.30375652690418e-05
-3.1864416087046266e-05,-2.4541193852201104e-05,3.2882383038668195e-07,6.69955406920053e-05
-2.7207841412746347e-05,-4.4615313527174294e-05,1.8589514638733817e-06,6.937850412214175e-05
-2.180278352170717e-05,-4.233472645864822e-05,6.911517971275316e-07,6.97368523105979e-05
-1.9649371097330004e-05,-1.9392775357118808e-05,-2.2227611395919666e-07,6.855793617432937e-05
-1.8801147234626114e-05,3.673333594633732e-06,-9.060472052624391e-07,6.252119783312082e-05
-1.8661936337593943e-05,1.5324671039707027e-05,-2.9980285489727976e-06,5.7540997659089044e-05
-2.039134233200457e-05,3.479618681012653e-05,-3.908590770151932e-06,5.635431080008857e-05
-2.4443043002975173e-05,8.026037539821118e-05,-5.451906872622203e-06,5.7492510677548125e-05
-2.8925322112627327e-05,0.0001204263826366514,-5.925709047005512e-06,6.294146442087367e-05
-2.944544939964544e-05,0.0001173519849544391,-4.9463660616311245e-06,6.301691610133275e-05
-2.5685299988253973e-05,7.676679524593055e-05,-4.004195488960249e-06,5.669938400387764e-05
-2.3297487132367678e-05,2.861146640498191e-05,-8.208901363104815e-07,5.5749416787875816e-05
-2.3196949769044295e-05,1.7738999531502486e-06,3.4051263355650008e-06,5.9136433264939114e-05
-2.3868889911682345e-05,4.3506494762368675e-07,4.657120825868333e-06,6.256105552893132e-05
-2.497873174434062e-05,8.077397978922818e-06,8.454017006442882e-07,6.459259748226032e-05
-2.516263884899672e-05,2.028421477007214e-05,-3.159981815770152e-06,6.314797064987943e-05
-2.0083407434867695e-05,6.851878424640745e-05,-2.7902156034542713e-06,6.171868153614923e-05
-1.1835604709631298e-05,0.00014291959814727306,1.5964313888616743e-06,5.983282972010784e-05
-9.839747690421063e-06,0.0001788528898032382,5.484484972839709e-06,5.6320066505577415e-05
-1.4607103366870433e-05,0.00014763150829821825,4.615719717548927e-06,5.324532321537845e-05
-2.0140247215749696e-05,8.674147829879075e-05,-2.4264452349598287e-06,5.165327092981897e-05
-2.4314549591508694e-05,4.2382191168144345e-05,-1.2600440641108435e-05,5.234108175500296e-05
-2.7251835490460508e-05,5.279128345136996e-06,-2.2162834284245037e-05,5.3366991778602824e-05
-2.6185984097537585e-05,-4.755060945171863e-05,-2.675061477930285e-05,5.282989877741784e-05
-2.477045200066641e-05,-0.00011488487507449463,-2.8968914193683304e-05,5.319847332430072e-05
-2.459586175973527e-05,-0.00016628438606858253,-2.9703900509048253e-05,5.648106525768526e-05
-2.484037759131752e-05,-0.0001783167099347338,-2.5323663066956215e-05,5.966424578218721e-05
-2.5142151571344584e-05,-0.00014684160123579204,-1.3337998097995296e-05,5.958039400866255e-05
-2.5684659703983925e-05,-9.423344454262406e-05,8.190033895516535e-07,5.687936572940089e-05
-2.628352740430273e-05,-7.304609607672319e-05,9.373929060529917e-06,5.371852239477448e-05
-2.821107773343101e-05,-7.546062261098996e-05,1.0972822565236129e-05,4.893416917184368e-05
-2.8605214538401924e-05,-3.080174428760074e-05,7.277854820131324e-06,4.267307303962298e-05
-2.6605128368828446e-05,6.258914072532207e-05,5.289268301567063e-06,4.1695708205224946e-05
-2.293731267855037e-05,0.0001343203621217981,9.666318874224089e-06,5.0340546295046806e-05
-1.2404819244693499e-05,0.00018500992155168205,1.6515947208972648e-05,6.242742529138923e-05
3.530485344072076e-07,0.00026223750319331884,1.1700610230036546e-05,6.837744149379432e-05
6.4915052462311e-06,0.00030881984275765717,-7.3349856393178925e-06,6.972002302063629e-05
-2.836834482877748e-06,0.0002581829612608999,-2.4923485398176126e-05,6.632068107137457e-05
-2.1030875359429047e-05,0.00017388649575877935,-3.839527926174924e-05,5.372761734179221e-05
-2.9403077860479243e-05,9.629769920138642e-05,-5.194135883357376e-05,4.5794313336955383e-05
-2.5217146685463376e-05,9.047164894582238e-06,-5.958296969765797e-05,4.557665670290589e-05
-2.3776798116159625e-05,-5.307095489115454e-05,-5.755308666266501e-05,4.0429949876852334e-05
-2.7126170607516542e-05,-8.009165321709588e-05,-5.163854802958667e-05,3.6273315345169976e-05
-2.7579444576986134e-05,-5.447983494377695e-05,-4.444629666977562e-05,3.694678525789641e-05
-2.4296667106682435e-05,3.369044179635239e-06,-3.399373235879466e-05,4.0658323996467516e-05
-2.214822598034516e-05,2.8166963602416217e-05,-2.7821000912808813e-05,4.5321146899368614e-05
-2.7155960196978413e-05,7.393647138087545e-06,-2.9966260626679286e-05,4.7516412450931966e-05
-3.7628480640705675e-05,-2.1725740225519985e-05,-3.677732092910446e-05,4.6690405724802986e-05
-4.276359686627984e-05,-1.7010026567731984e-05,-4.0918286686064675e-05,4.460330092115328e-05
-3.6045054002897814e-05,3.7343170333770104e-06,-3.850186840281822e-05,4.61209929198958e-05
-2.8095299057895318e-05,-6.4358519011875615e-06,-3.0478691769530997e-05,4.790582897840068e-05
-2.803071947710123e-05,-7.04264675732702e-05,-2.1295809347066097e-05,4.5689848775509745e-05
-3.161487256875262e-05,-0.00012591439008247107,-1.404680915584322e-05,4.343478212831542e-05
-3.2792537240311503e-05,-0.00011061774421250448,-9.298872100771405e-06,4.5424818381434307e-05
-3.347407982801087e-05,-5.3210187616059557e-05,-5.88041621085722e-06,5.102239447296597e-05
-3.3036256354535e-05,-1.9281829736428335e-05,-2.2386916498362552e-06,5.589241482084617e-05
-2.792433588183485e-05,-1.9812090613413602e-05,2.206519411629415e-06,5.52407291252166e-05
-2.018079612753354e-05,-3.3759006328182295e-05,8.646124115330167e-06,5.1964092563139275e-05
-1.5725678167655133e-05,-3.334765642648563e-05,2.1258914784993976e-05,5.300230986904353e-05
-1.6801734091131948e-05,-2.31871035794029e-06,3.850932262139395e-05,5.947978570475243e-05
-2.081028651446104e-05,4.429815089679323e-05,4.5262655476108193e-05,6.414539529941976e-05
-2.3608963601873256e-05,7.870391709730029e-05,3.7165471439948305e-05,6.508502701763064e-05
-2.2154139514896087e-05,8.899888052837923e-05,2.2371292288880795e-05,6.952798139536753e-05
-1.866800266725477e-05,8.063043060246855e-05,1.0062570254376624e-05,7.557930803159252e-05
-1.8285916667082347e-05,4.95254535053391e-05,7.170942808443215e-06,7.473397272406146e-05
-2.1274739992804825e-05,-4.721080131275812e-06,8.440418241661973e-06,7.511774310842156e-05
-2.2800684746471234e-05,-1.9558197891456075e-05,6.747460247424897e-06,7.586614083265886e-05
-2.2008935047779232e-05,6.742845926055452e-06,-7.433825999214605e-08,6.664043030468747e-05
-2.437821967760101e-05,-5.304551905283006e-06,-1.1883540537382942e-05,5.704558498109691e-05
-2.9596045351354405e-05,-1.1861960047099274e-05,-1.9076747776125558e-05,5.1353763410588726e-05
-3.3890490158228204e-05,4.340088344179094e-05,-1.5160076145548373e-05,4.82120449305512e-05
-3.556707815732807e-05,0.0001312531385337934,-4.7739931687829085e-06,4.9106558435596526e-05
-3.282033503637649e-05,0.00020539425895549357,1.185425048788602e-06,5.357727422961034e-05
-3.0254572266130708e-05,0.00023056594363879412,5.227283850217646e-07,5.9940848586848006e-05
-3.33285061060451e-05,0.00019115160102955997,-4.124301085539628e-06,6.289080920396373e-05
-3.600539639592171e-05,0.00012956795399077237,-1.0446548003528733e-05,6.0081012634327635e-05
-3.3862193959066644e-05,7.995057239895687e-05,-1.541934398119338e-05,5.694558785762638e-05
-3.463046232354827e-05,1.770204835338518e-05,-1.630038968869485e-05,5.371030420064926e-05
-4.009735494037159e-05,-6.901908636791632e-05,-1.3080474673188291e-05,5.142845111549832e-05
-4.475175592233427e-05,-0.00014482549158856273,-1.0804125849972479e-05,5.120147397974506e-05
-4.490120045375079e-05,-0.00017408336861990392,-1.3371742170420475e-05,5.223180778557435e-05
-4.028079274576157e-05,-0.00015125567733775824,-1.6139852959895507e-05,5.635074921883643e-05
-3.312904300400987e-05,-9.358767420053482e-05,-1.583018274686765e-05,6.165544618852437e-05
-2.5058319806703366e-05,-3.1852869142312557e-05,-1.5499235814786516e-05,6.440802098950371e-05
-1.9170023733749986e-05,-5.723839421989396e-06,-1.6262509234366007e-05,6.612200377276167e-05
-1.8800868929247372e-05,-1.3547184607887175e-05,-1.6132897144416347e-05,7.030855340417475e-05
-2.1143532649148256e-05,3.7811273614352103e-06,-1.3363424841372762e-05,7.589138840558007e-05
-2.287811366841197e-05,5.1421589887468144e-05,-1.1672422260744497e-05,7.675382948946208e-05
-2.6187475668848492e-05,6.914811820024624e-05,-1.0091881449625362e-05,7.003091013757512e-05
-2.8667267542914487e-05,2.7680913262884133e-05,-4.4374219214660116e-06,6.747406587237492e-05
-2.6708428777055815e-05,-2.0975903680664487e-05,-1.8983455163379404e-07,7.009934051893651e-05
-2.690359360713046e-05,-4.217874811729416e-05,-1.5592848967571626e-06,7.105201075319201e-05
-3.0609349778387696e-05,-4.9784397560870275e-05,2.5164504222630057e-06,7.095532782841474e-05
-3.245630796300247e-05,-4.2977557313861325e-05,1.3999571820022538e-05,7.331356755457819e-05
-3.153476427542046e-05,-2.8191030651214533e-05,2.518954534025397e-05,7.479693158529699e-05
-2.9036764317424968e-05,8.669021553942002e-06,2.929253241745755e-05,7.2152579377871e-05
-2.738071452768054e-05,8.536114182788879e-05,2.870942626032047e-05,7.19410163583234e-05
-2.532997132220771e-05,0.00016624180716462433,2.3079879611032084e-05,7.351490785367787e-05
-2.0943183699273504e-05,0.00020688360382337123,9.375703484693076e-06,7.18061564839445e-05
-1.7730941181071103e-05,0.00018817640375345945,-2.2743615772924386e-06,6.785832374589518e-05
-1.821552541514393e-05,0.0001296732370974496,-1.0830171959241852e-05,6.161441706353799e-05
-1.9707365936483257e-05,7.008673856034875e-05,-2.3923343178466894e-05,5.1396644266787916e-05
-2.0723075067508034e-05,3.6522760638035834e-05,-4.130884553887881e-05,4.313158933655359e-05
-2.3637157937628217e-05,1.3483522707247175e-05,-5.452628101920709e-05,4.082158920937218e-05
-2.5258103050873615e-05,-3.3455849916208535e-05,-5.8153313148068264e-05,4.38854840467684e-05
-2.250793477287516e-05,-8.279694884549826e-05,-5.1617480494314805e-05,4.8145804612431675e-05
-1.9362718376214616e-05,-6.856112304376438e-05,-4.028174953418784e-05,4.885810994892381e-05
-1.999118467210792e-05,2.0682222384493798e-05,-3.3377695217495784e-05,4.495939356274903e-05
-2.351194416405633e-05,0.00010802585893543437,-3.301221295259893e-05,4.32999586337246e-05
-2.982177284138743e-05,0.00013318202400114387,-3.2091429602587596e-05,4.696712494478561e-05
-3.52429342456162e-05,0.00011379131319699809,-2.9262015232234262e-05,5.341694850358181e-05
-3.460278094280511e-05,7.868390093790367e-05,-2.9167214961489663e-05,6.0727405070792884e-05
-2.9842694857507013e-05,5.156485713087022e-05,-3.0411911211558618e-05,6.476162525359541e-05
-2.507820499886293e-05,4.9895315896719694e-05,-2.8036689400323667e-05,6.590862903976813e-05
-2.3481967218685895e-05,5.0328300858382136e-05,-2.2338565031532198e-05,6.558866880368441e-05
-2.2499063561554067e-05,4.344317130744457e-05,-1.964550574484747e-05,6.184489029692486e-05
-2.186008896387648e-05,4.538292341749184e-05,-1.8693481251830235e-05,5.79652696615085e-05
-1.8917309716925956e-05,3.36194243573118e-05,-1.8270875443704426e-05,5.7302324421470985e-05
-1.4758702491235454e-05,-2.2908347091288306e-05,-1.5857076505199075e-05,5.909040555707179e-05
-1.1649048246908933e-05,-6.527783261844888e-05,-1.1941704542550724e-05,6.712025060551241e-05
-8.798733688308857e-06,-5.383608004194684e-05,-9.779661013453733e-06,6.926523928996176e-05
-1.0299158020643517e-05,-2.2510421331389807e-05,-5.341389623936266e-06,6.227885751286522e-05
-1.5087061910890043e-05,1.3438460882753134e-05,-3.0416142635658616e-06,6.0328464314807206e-05
-2.0862629753537476e-05,4.014241130789742e-05,-2.258304675706313e-06,6.596875755349174e-05
-2.3298505766433664e-05,4.148376319790259e-05,-1.3046424101048615e-06,6.710158777423203e-05
-2.175524969061371e-05,1.8181641280534677e-05,1.8687219949242717e-07,6.157766620162874e-05
-2.1602872948278673e-05,7.171169272623956e-06,1.3126216344971908e-06,5.8280867961002514e-05
-2.2513191652251408e-05,3.0019466066733003e-05,3.4462598819118284e-07,5.7898265367839485e-05
-2.4744465918047354e-05,6.448969361372292e-05,-2.669955165401916e-06,5.845080522703938e-05
-2.6670697479858063e-05,8.720558253116906e-05,-7.700003152422141e-06,6.031537486705929e-05
-2.718208997976035e-05,8.857982174959034e-05,-1.1966331840085331e-05,6.19975253357552e-05
-2.9418970370898023e-05,7.52019914216362e-05,-1.4562871001544409e-05,5.7998237025458366e-05
-3.411535726627335e-05,5.667887307936326e-05,-1.5557639926555566e-05,5.1864084525732324e-05
-3.703074617078528e-05,3.0478864573524334e-05,-1.763588807079941e-05,5.168281859369017e-05
-3.4809152566595e-05,-2.2036605514585972e-05,-2.0522587874438614e-05,5.612533641397022e-05
-2.7514524845173582e-05,-8.596038969699293e-05,-2.2292300855042413e-05,5.837436765432358e-05
-2.0275527276680805e-05,-9.702808893052861e-05,-2.050520561169833e-05,5.838219658471644e-05
-1.6815600247355178e-05,-4.4817672460339963e-05,-1.4303127500170376e-05,6.062533429940231e-05
-1.5643887309124693e-05,1.8776107708617928e-06,-3.966021267842734e-06,6.621468492085114e-05
-1.727695962472353e-05,7.805107998137828e-06,5.011835128243547e-06,7.319812721107155e-05
-1.6780042642494664e-05,-1.0989342626999132e-06,7.157283107517287e-06,7.675064262002707e-05
-1.8290820662514307e-05,9.88040574156912e-06,4.316225840739207e-06,7.464808004442602e-05
-2.2662617993773893e-05,5.058297028881498e-05,-9.209509812535543e-07,7.164357521105558e-05
-2.485299228283111e-05,0.00010192243644269183,-3.2559055398451164e-06,6.920906162122265e-05
-2.802525705192238e-05,0.00012393899669405073,-5.335016339813592e-07,6.995959847699851e-05
-3.0570859962608665e-05,9.604023216525093e-05,-1.8173407170252176e-06,7.199899846455082e-05
-3.024191755685024e-05,4.2126121115870774e-05,-9.647368642617948e-06,7.091420411597937e-05
-3.0676248570671305e-05,-1.244156555912923e-05,-1.470691950089531e-05,6.516958819702268e-05
-3.640919385361485e-05,-4.8364923713961616e-05,-1.2076858183718286e-05,6.211503932718188e-05
-3.989433025708422e-05,-6.590607517864555e-05,-7.069437742757145e-06,6.374951044563204e-05
-3.949976235162467e-05,-7.238174293888733e-05,-5.100241196487332e-06,6.807898898841813e-05
-4.038461338495836e-05,-5.599229916697368e-05,-7.457562333001988e-06,7.250822091009468e-05
-4.018789331894368e-05,-2.0832630980294198e-05,-1.1088463907071855e-05,7.075902976794168e-05
-3.6276731407269835e-05,1.4034018022357486e-05,-1.1690591236401815e-05,6.757898518117145e-05
-3.1602266972186044e-05,3.376664608367719e-05,-1.1012962204404175e-05,6.674532778561115e-05
-2.786101686069742e-05,4.308202551328577e-05,-1.146257454820443e-05,6.997481250436977e-05
-2.640174534462858e-05,5.621161835733801e-05,-1.109410459321225e-05,7.167120202211663e-05
-2.8166350602987222e-05,6.64575636619702e-05,-8.32141267892439e-06,6.894534453749657e-05
-2.7601618057815358e-05,6.114787538535893e-05,-3.2572004329267656e-06,6.519362796097994e-05
-2.322025829926133e-05,4.261126377969049e-05,1.1766067018470494e-06,6.467937782872468e-05
-1.8951870515593328e-05,2.712718014663551e-05,1.1410942306611105e-06,6.66617852402851e-05
-1.929251266119536e-05,1.484050699218642e-05,-3.726878958332236e-06,6.598355685127899e-05
-2.2865322534926236e-05,-1.0397511687187944e-05,-1.096492269425653e-05,5.923114804318175e-05
-2.8533873773994856e-05,-4.164657730143517e-05,-1.916375731525477e-05,4.985938358004205e-05
-3.268962609581649e-05,-3.8752063119318336e-05,-2.5976589313359e-05,4.64878321508877e-05
-3.3765649277484044e-05,6.78043170410092e-06,-2.4391030819970183e-05,5.2136980229988694e-05
-3.5021941585000604e-05,7.125103002181277e-05,-1.7789565390557982e-05,5.78715989831835e-05
-3.768485112232156e-05,0.0001383899070788175,-1.5472191080334596e-05,5.5098847951740026e-05
-3.798990655923262e-05,0.00018975640705320984,-1.6302166841342114e-05,4.832899503526278e-05
-3.60720296157524e-05,0.00019506848184391856,-1.5126151993172243e-05,4.6120560000417754e-05
-3.360517803230323e-05,0.000139509211294353,-1.2909036740893498e-05,5.086969758849591e-05
-3.2344898500014096e-05,6.823381409049034e-05,-1.1763055226765573e-05,5.6374818086624146e-05
-3.163877408951521e-05,4.748612263938412e-05,-1.3951161236036569e-05,5.759113628300838e-05
-2.7728612622013316e-05,5.9582853282336146e-05,-1.554259506519884e-05,5.615994450636208e-05
-2.2431120669352822e-05,3.98403026338201e-05,-1.6053003491833806e-05,5.12237565999385e-05
-1.7310110706603155e-05,-7.903840014478192e-06,-1.740209336276166e-05,4.7863224608590826e-05
-1.5932107999105938e-05,-3.1539857445750386e-05,-1.572416294948198e-05,4.906111644231714e-05
-1.979933585971594e-05,-1.3402712284005247e-05,-1.0986933375534136e-05,4.813120176550001e-05
-2.5594210455892608e-05,-6.953905995032983e-06,-6.6460870584705845e-06,4.640044062398374e-05
-2.7784644771600142e-05,-2.1224288502708077e-05,-5.1574143071775325e-06,4.733556124847382e-05
-2.690056135179475e-05,-1.6283063814626075e-05,-4.809449819731526e-06,5.1813047321047634e-05
-2.6471623641555198e-05,1.939986577781383e-05,-7.997705324669369e-06,5.274184513837099e-05
-2.7972999305347912e-05,6.531316466862336e-05,-1.320783940172987e-05,5.069596227258444e-05
-2.9441716833389364e-05,9.993821004172787e-05,-1.8967719370266423e-05,4.753139728563838e-05
-3.0581544706365094e-05,0.00010651977936504409,-2.4313820176757872e-05,4.718138734460808e-05
-2.7358839361113496e-05,8.688732486916706e-05,-2.4940009097917937e-05,5.062013224232942e-05
-2.0517602024483494e-05,5.7473986089462414e-05,-1.8987477233167738e-05,5.58239444217179e-05
-1.7465690689277835e-05,3.346859375596978e-05,-9.543410669721197e-06,6.189971463754773e-05
-1.9804778276011348e-05,2.9876080589019693e-05,-2.378009412495885e-06,6.434597889892757e-05
-2.1101130187162198e-05,3.991008998127654e-05,5.625500421047036e-07,6.00523708271794e-05
-1.8807017113431357e-05,5.0183971325168386e-05,-8.909486268748879e-07,5.253079143585637e-05
-1.8014985471381806e-05,5.257732482277788e-05,-2.9502989491447806e-06,5.045841317041777e-05
-2.0607210899470374e-05,4.822488335776143e-05,-3.148072664771462e-06,5.2128885727142915e-05
-2.6298424927517772e-05,3.6993122193962336e-05,-3.4327154025959317e-06,5.325058737071231e-05
-3.371506682015024e-05,3.163172732456587e-05,-4.808057383343112e-06,5.263814819045365e-05
-3.7313227949198335e-05,3.663936149678193e-05,-8.104076187009923e-06,5.395980770117603e-05
-3.596293390728533e-05,1.9407840227358975e-05,-1.2187715583422687e-05,5.558009434025735e-05
-3.6507048207568005e-05,-4.504171010921709e-05,-1.1998560694337357e-05,5.7733046560315415e-05
-3.4652701287996024e-05,-0.00012540846364572644,-7.229017228382872e-06,6.0367743571987376e-05
-2.8639278752962127e-05,-0.0001619548856979236,1.1870000662383973e-06,5.965554009890184e-05
-2.504439362382982e-05,-0.00015860820712987334,1.0450959962327033e-05,5.6587698054499924e-05
-2.4634080546093173e-05,-0.00012922818132210523,1.8030827050097287e-05,5.688981036655605e-05
-2.370403854001779e-05,-6.82462050463073e-05,2.1799020032631233e-05,5.964125011814758e-05
-2.0427023628144525e-05,-3.5934499464929104e-05,2.2065787561587058e-05,5.91497628192883e-05
-1.884660559881013e-05,-4.608755625667982e-05,2.468714228598401e-05,5.909099127165973e-05
-2.2772566808271222e-05,-3.403636219445616e-05,2.6234072720399126e-05,5.721475099562667e-05
-2.7433979994384572e-05,4.8415011406177655e-05,2.0601137293851934e-05,5.1571721996879205e-05
-2.8550390197779052e-05,0.00016020421753637493,1.3580440281657502e-05,4.895364691037685e-05
-2.5929621187970042e-05,0.00022382156748790294,1.0194178685196675e-05,5.1736202294705436e-05
-2.3667562345508486e-05,0.00021147250663489103,7.78162939241156e-06,5.7080414990196005e-05
-1.9457414964563213e-05,0.0001664041046751663,4.6800605559838004e-06,6.0487229347927496e-05
-1.1287678717053495e-05,0.00016030205006245524,-2.4602670691820094e-06,6.166505045257509e-05
-1.1190119948878419e-05,0.00020676027634181082,-1.5760584574309178e-05,5.5872937082313e-05
-2.742889046203345e-05,0.00022937000903766602,-3.179832492605783e-05,4.236796303302981e-05
-4.325422560214065e-05,0.00019341141160111874,-4.170636020717211e-05,3.147888128296472e-05
-4.3367352191125974e-05,0.00017995036614593118,-4.231604907545261e-05,3.115931394859217e-05
-3.621215364546515e-05,0.00021322346583474427,-3.885842670570128e-05,3.778616155614145e-05
-3.273402035119943e-05,0.00016261773998849094,-3.7745376175735146e-05,4.2348830902483314e-05
-3.2678090065019205e-05,-6.501127063529566e-05,-4.051325231557712e-05,4.151677057961933e-05
-3.0507637347909622e-05,-0.0003135082370135933,-4.558533328236081e-05,3.966324220527895e-05
-2.828057768056169e-05,-0.00036361240199767053,-4.7328830987680703e-05,4.1026578401215374e-05
-2.9932187317172065e-05,-0.00023937781224958599,-3.947117875213735e-05,4.2632673284970224e-05
-3.233956886106171e-05,-0.00013566781126428396,-2.968428634630982e-05,4.280200300854631e-05
-3.0418901587836444e-05,-0.00013842458429280668,-2.3879154468886554e-05,4.416789670358412e-05
-2.5050916519830935e-05,-0.00015377157251350582,-1.91240160347661e-05,4.5377262722468004e-05
-2.1453752196975984e-05,-9.424222662346438e-05,-1.7368294720654376e-05,4.7562032705172896e-05
-2.4553701223339885e-05,-3.0463117582257837e-05,-1.947041164385155e-05,4.949010326527059e-05
-2.503742325643543e-05,-5.236091510596452e-06,-1.734238503559027e-05,5.183650500839576e-05
-1.8239570636069402e-05,5.5550262914039195e-06,-1.084023551811697e-05,5.701940244762227e-05
-1.0280832611897495e-05,1.1919920325453859e-05,-7.571908554382389e-06,5.755896927439608e-05
-6.157012194307754e-06,9.101016075874213e-06,-4.669380359700881e-06,5.73163379158359e-05
-1.1617735253821593e-05,-1.708575655356981e-05,-1.6877123698577634e-06,5.793145828647539e-05
-1.8945806004921906e-05,-2.4264634703285992e-05,-1.4521133380185347e-06,5.9959325881209224e-05
-1.8937678760266863e-05,4.4304513721726835e-05,-4.117672233405756e-06,6.512810796266422e-05
-1.6944235539995134e-05,0.00014466734137386084,-7.405120868497761e-06,6.835277599748224e-05
-1.9364319086889736e-05,0.0001741589221637696,-8.701761544216424e-06,6.696688069496304e-05
-2.3119986508390866e-05,0.00011268375965300947,-1.0146096428798046e-05,6.456216215156019e-05
-2.331622818019241e-05,4.332051321398467e-05,-9.458402928430587e-06,6.460203439928591e-05
-2.1637146346620284e-05,2.566142939031124e-05,-4.454459940461675e-06,6.752891204087064e-05
-1.893902117444668e-05,2.7458467229735106e-05,1.0113559483215795e-06,7.208713941508904e-05
-1.621680348762311e-05,9.617297109798528e-07,2.6172708658123156e-06,7.517392805311829e-05
-1.6380106899305247e-05,-4.550055382424034e-05,1.8237569747725502e-06,7.485291280318052e-05
-1.9524299204931594e-05,-7.319189899135381e-05,1.0113237749465043e-06,7.143021502997726e-05
-2.1666113752871752e-05,-7.315066613955423e-05,1.3481287624017568e-06,6.648350245086476e-05
-2.2718611944583245e-05,-6.956767902011052e-05,5.417010015662527e-06,6.122182094259188e-05
-2.4086788471322507e-05,-0.0001045884273480624,1.2518686162366066e-05,5.920666080783121e-05
-2.278953070344869e-05,-0.00019503961084410548,1.80250881385291e-05,6.0850779846077785e-05
-2.007443799811881e-05,-0.00029405680834315717,2.0068397134309635e-05,6.202726945048198e-05
-1.965651426871773e-05,-0.0003093385021202266,1.960348708962556e-05,6.113004928920418e-05
-2.3437838535755873e-05,-0.00019407895160838962,1.738168612064328e-05,5.880717435502447e-05
-3.052405372727662e-05,1.6334208339685574e-05,1.1925067155971192e-05,5.6452550779795274e-05
-3.743806155398488e-05,0.00020925227727275342,5.984057224850403e-06,5.260433317744173e-05
-3.720068707480095e-05,0.0003271790046710521,5.899981943002786e-07,4.6669392759213224e-05
-3.193644806742668e-05,0.0003786511952057481,-6.030863914929796e-06,4.6306617150548846e-05
-3.007488339790143e-05,0.0003628932172432542,-1.3696259884454776e-05,4.588998854160309e-05
-2.805828808050137e-05,0.0003280333476141095,-2.640364800754469e-05,4.5445649448083714e-05
-2.267706258862745e-05,0.0003304406418465078,-4.2995572584914044e-05,4.735183756565675e-05
-1.7058151570381597e-05,0.0003516375145409256,-5.292403875500895e-05,4.829946919926442e-05
-1.3432440027827397e-05,0.00031599123030900955,-4.958118370268494e-05,5.1306207751622424e-05
-1.4867527170281392e-05,0.000200044407392852,-4.3573159928200766e-05,5.454977144836448e-05
-2.5024210117408074e-05,7.845615618862212e-05,-4.0363662265008315e-05,5.548443732550368e-05
-3.498284422676079e-05,5.128857083036564e-05,-3.416523395571858e-05,5.505702210939489e-05
-3.733202538569458e-05,9.519034210825339e-05,-2.530915298848413e-05,5.738517575082369e-05
-3.475094854366034e-05,0.00013320212019607425,-1.834889371821191e-05,5.9848996897926554e-05
-3.2942305551841855e-05,0.00011851565795950592,-1.6249472537310794e-05,6.328587187454104e-05
-3.44064537785016e-05,5.592820161837153e-05,-1.5748399164294824e-05,6.493199180113152e-05
-3.488107904559001e-05,-1.3154495718481485e-05,-1.3619849596580025e-05,6.301004032138735e-05
-3.3007603633450344e-05,-6.047886563464999e-05,-1.3455894986691419e-05,5.9864680224563926e-05
-2.9430279028019868e-05,-9.37942968448624e-05,-1.5146298210311215e-05,5.6596116337459534e-05
-2.7488316845847294e-05,-0.00012591888662427664,-1.5067014828673564e-05,5.266190419206396e-05
-2.5774641471798532e-05,-0.00013082697114441544,-1.3834753190167248e-05,5.387965575209819e-05
-2.413386755506508e-05,-0.00010376558930147439,-1.431567216059193e-05,6.084128835937008e-05
-2.4131664758897386e-05,-6.904420297360048e-05,-1.8428238035994582e-05,6.40704165562056e-05
-2.3635255274712108e-05,-4.8288882680935785e-05,-2.1722609744756483e-05,6.442949234042317e-05
-2.2974194507696666e-05,-4.23577512265183e-05,-1.956537744263187e-05,6.571107951458544e-05
-2.258441054436844e-05,-4.96338470838964e-05,-1.4456569260801189e-05,6.813722575316206e-05
-1.9694884031196125e-05,-5.250951289781369e-05,-7.683695912419353e-06,6.856332038296387e-05
-1.707436967990361e-05,-4.1291754314443097e-05,-1.976151907001622e-06,6.619494524784386e-05
-2.216396023868583e-05,-2.8193724574521184e-05,-2.3625054836884374e-06,6.233005115063861e-05
-3.0029219487914816e-05,-2.2405889467336237e-05,-2.095136778734741e-06,6.277871580095962e-05
-3.1492800189880654e-05,-2.5757755793165416e-05,3.2789986903480894e-07,6.642898370046169e-05
-2.994768146891147e-05,-4.494073073146865e-05,2.9358627671172144e-06,6.646149995503947e-05
-2.7065001631854102e-05,-5.42897469131276e-05,5.608956143987598e-06,6.43678504275158e-05
-2.588403003755957e-05,-4.473133594729006e-05,3.1354804832517402e-06,6.608680268982425e-05
-2.7805452191387303e-05,-3.069197919103317e-05,-8.778984579294047e-07,7.12276523699984e-05
-3.1323201255872846e-05,-2.1335057681426406e-05,-1.2703919765044702e-06,7.132359314709902e-05
-3.274135815445334e-05,-1.596065158082638e-05,1.6405647329520434e-07,6.083809057599865e-05
-2.855950515368022e-05,-8.465561222692486e-06,3.627452471732795e-08,4.411578265717253e-05
-2.3569498807773925e-05,-4.059981620230246e-06,2.4290818601002684e-07,3.0525941838277504e-05
-2.176720772695262e-05,2.5861911581159802e-06,1.2236652082719957e-06,2.4746486815274693e-05
-2.1876496248296462e-05,1.16546225399361e-05,2.2213966985873412e-06,2.034156204899773e-05
-2.256067091366276e-05,1.868974322860595e-05,1.0637022569426335e-06,1.4281283256423194e-05
-2.5348907001898624e-05,2.1404588551376946e-05,-1.544394763186574e-06,1.0389304406999145e-05
-2.785736978694331e-05,2.3328735551331192e-05,-2.9763264137727674e-06,1.040678944264073e-05
-2.808695899148006e-05,2.4637589376652613e-05,-3.0737041925021913e-06,8.124110536300577e-06
-2.8103500881115906e-05,2.6317762603866868e-05,-4.0166351027437486e-06,3.0902563139534323e-06
-3.0017188691999763e-05,2.5538533009239472e-05,-7.164558155636769e-06,1.1253296179347672e-06
-2.952546492451802e-05,2.719796248129569e-05,-9.597963980922941e-06,3.387378455954604e-06
-2.6527086447458714e-05,4.683621955337003e-05,-8.585529030824546e-06,5.603082627203548e-06
-2.437058174109552e-05,8.89195071067661e-05,-4.989000899513485e-06,6.142320216895314e-06
-2.280830631207209e-05,0.00012045943003613502,-5.4707702474843245e-06,9.35646858124528e-06
-2.2399095541913994e-05,0.00010967586422339082,-8.431830792687833e-06,1.3826762369717471e-05
-2.6108291422133334e-05,6.406717875506729e-05,-9.795684491109569e-06,1.71519786817953e-05
-3.034376641153358e-05,1.4313804058474489e-05,-1.2182445061625913e-05,1.911753679451067e-05
-3.069944796152413e-05,-1.4310933693195693e-05,-1.3280917301017325e-05,2.2509886548505165e-05
-3.0112496460787952e-05,-1.2040317415085156e-05,-8.874480954546016e-06,2.83906701952219e-05
-3.1153904274106026e-05,4.471156444196822e-06,-4.2503097574808635e-06,2.7278823836240917e-05
-3.0176282962202094e-05,8.083089596766513e-06,-4.114742750971345e-06,2.199923255830072e-05
-2.780624527076725e-05,-1.9831923054880463e-06,-8.816421541268937e-06,2.0246634448994882e-05
-2.4915179892559536e-05,-4.384178282634821e-06,-1.4205170373315923e-05,1.95816537598148e-05
-2.317089820280671e-05,1.8216846001450904e-05,-1.625757067813538e-05,2.1460271454998292e-05
-2.7049463824369013e-05,5.5443146266043186e-05,-1.6416075595770963e-05,2.417526593490038e-05
-2.9251674277475104e-05,7.816416473360732e-05,-1.8931707018055022e-05,2.718998075579293e-05
-3.0512841476593167e-05,7.716329855611548e-05,-2.163185490644537e-05,2.9765338695142418e-05
-3.465659392531961e-05,7.02572797308676e-05,-2.248692726425361e-05,3.3672156860120595e-05
-3.489915980026126e-05,6.0605467297136784e-05,-2.157833478122484e-05,3.914230546797626e-05
-2.9493356123566628e-05,4.840618930757046e-05,-1.81541563506471e-05,4.46516351075843e-05
-2.351589864701964e-05,3.882124292431399e-05,-1.443894871044904e-05,4.716499461210333e-05
-2.3908118237159215e-05,3.454946636338718e-05,-9.469796168559697e-06,4.9111538828583434e-05
-2.920264523709193e-05,3.872919114655815e-05,-4.184823865216458e-06,5.2794686780544e-05
-3.1826028134673834e-05,4.783693657373078e-05,-5.118939725434757e-07,5.436475476017222e-05
-2.8917647796333767e-05,4.989521039533429e-05,-6.334664135465573e-07,5.3779851441504434e-05
-2.569574826338794e-05,4.1874925955198705e-05,-5.736085313401418e-06,5.64457404834684e-05
-2.621239036670886e-05,3.290443055448122e-05,-1.3003237654629629e-05,6.194940215209499e-05
-2.6410862119519152e-05,2.539820889069233e-05,-1.5291809177142568e-05,6.694499461445957e-05
-2.399416007392574e-05,1.9378585420781747e-05,-1.1288663699815515e-05,7.136820204323158e-05
-2.2144033209769987e-05,2.1079757061670534e-05,-6.166254934214521e-06,7.694192754570395e-05
-2.355475226067938e-05,2.9599706977023743e-05,-1.671910240474972e-06,8.218207221943885e-05
-2.5504015866317786e-05,3.568399552023038e-05,2.6082616386702284e-06,8.078044629655778e-05
-2.4920762371039018e-05,3.6777128116227686e-05,5.146927833266091e-06,7.67577876104042e-05
-2.581604894658085e-05,3.593885776354e-05,4.1351845538883936e-06,7.440315675921738e-05
-2.9182498110458255e-05,3.489895971142687e-05,1.5535216846274125e-07,7.58194291847758e-05
-3.0163668270688504e-05,3.431013101362623e-05,-2.941881575679872e-06,8.276759035652503e-05
-2.6519321181694977e-05,3.2496434869244695e-05,-6.533392024721252e-06,9.032023081090301e-05
-2.6390633138362318e-05,2.917938763857819e-05,-8.870325473253615e-06,8.89740840648301e-05
-3.073487459914759e-05,2.3991278794710524e-05,-8.28403699415503e-06,8.620062726549804e-05
-2.6162219000980258e-05,8.057489822022035e-07,-7.482267392333597e-06,8.494751818943769e-05
-1.85011431312887e-05,-2.972378752019722e-05,-5.12619226356037e-06,8.782174700172618e-05
-1.5591538613080047e-05,-4.3279876990709454e-05,-5.376237822929397e-06,9.317058720625937e-05
-1.8001943317358382e-05,-3.881401789840311e-05,-9.38395442062756e-06,9.3354974524118e-05
-2.1212117644608952e-05,-2.3536284061265178e-05,-1.38738187160925e-05,9.474666876485571e-05
-2.135611248377245e-05,-2.387504309808719e-06,-1.6136835256475024e-05,9.752527694217861e-05
-2.057237725239247e-05,1.8406928575132042e-05,-1.8170532712247223e-05,0.0001005766389425844
-2.1576501239906065e-05,4.0646529669174924e-05,-1.95473858184414e-05,9.983110066968948e-05
-2.1862741050426848e-05,7.119901420082897e-05,-1.9429302483331412e-05,9.770361793925986e-05
-1.8201555576524697e-05,9.990108083002269e-05,-1.980375418497715e-05,9.34357667574659e-05
-1.3969366591481958e-05,0.00010499387281015515,-2.104314808093477e-05,8.939141844166443e-05
-1.3482503163686488e-05,8.475204231217504e-05,-2.2952734070713632e-05,8.833939500618726e-05
-1.6133973986143246e-05,7.127720164135098e-05,-2.570910146459937e-05,8.924384019337595e-05
-1.8526148778619245e-05,7.881532656028867e-05,-2.8080288757337257e-05,9.133238199865445e-05
-2.1522171664400958e-05,8.39710992295295e-05,-2.7880700145033188e-05,9.07516514416784e-05
-2.50664415943902e-05,7.311466470127925e-05,-2.5195486159645952e-05,8.833385072648525e-05
-2.713974754442461e-05,6.385675078490749e-05,-1.902740950754378e-05,8.837341010803357e-05
-2.6248993890476413e-05,6.334669888019562e-05,-9.67439882515464e-06,9.175439481623471e-05
-2.4769351512077264e-05,5.87772810831666e-05,-2.5504045879642945e-06,9.373015927849337e-05
-2.5931847630999982e-05,4.298430576454848e-05,-2.44543434746447e-06,9.46395011851564e-05
-2.6502299078856595e-05,3.038042996195145e-05,-3.756676051125396e-06,9.437750122742727e-05
-2.2191976313479245e-05,3.0334005714394152e-05,-2.0507561657723272e-06,9.492079698247835e-05
-1.9718754629138857e-05,4.300231012166478e-05,1.12446748801176e-07,9.753525228006765e-05
-2.2069525584811345e-05,6.851407670183107e-05,2.08782876143232e-06,0.00010031562123913318
-2.341960498597473e-05,8.54405079735443e-05,4.007009465567535e-06,9.812648931983858e-05
-2.4613354980829172e-05,7.247774192364886e-05,1.8374530554865487e-06,9.731665340950713e-05
-2.7696889446815476e-05,4.9465415941085666e-05,-4.031821845273953e-06,9.879783465294167e-05
-2.578003659436945e-05,4.365450149634853e-05,-8.224472367146518e-06,9.445606701774523e-05
-2.5436413125135005e-05,2.977812800963875e-05,-1.1687873666232917e-05,8.781515498412773e-05
-2.9153807190596126e-05,-4.135542258154601e-05,-1.2831331332563423e-05,8.600606088293716e-05
-3.0298060664790682e-05,-0.00014302405179478228,-7.900496711954474e-06,8.917730156099424e-05
-2.9515094865928404e-05,-0.00018388620810583234,-1.396301399836375e-06,8.994911331683397e-05
-2.8179401851957664e-05,-0.00013384560588747263,5.465248705149861e-06,8.852146856952459e-05
-2.767201112874318e-05,-4.603271372616291e-05,8.767374310991727e-06,8.834918116917834e-05
-2.7538620997802354e-05,9.315277566201985e-06,1.0420124453958124e-05,9.116490400629118e-05
-2.4435632440145127e-05,4.2840065361815505e-06,1.5299676306312904e-05,9.461939771426842e-05
-1.936852277140133e-05,-1.2471099580579903e-05,1.794712989067193e-05,9.402527211932465e-05
-1.7868340364657342e-05,2.9086399081279524e-05,1.4812824701948557e-05,8.937018719734624e-05
-2.266740375489462e-05,9.62545454967767e-05,5.05219895785558e-06,8.03652947070077e-05
-3.0085475373198278e-05,0.00011477701627882197,-1.0155745258089155e-05,7.150132296374068e-05
-3.216752884327434e-05,0.00012196788156870753,-2.282789137098007e-05,6.993253919063136e-05
-2.8193115213070996e-05,0.00017534707149025053,-2.7032008802052587e-05,7.25253630662337e-05
-2.5893245037877932e-05,0.00017213572573382407,-2.6826215616893023e-05,7.199302490334958e-05
-2.7931968361372128e-05,2.2489717821372324e-07,-2.6307829102734104e-05,6.665047840215266e-05
-2.8869948437204584e-05,-0.00018816613010130823,-2.5932347853085957e-05,6.042077438905835e-05
-3.0769242584938183e-05,-0.0001831290719565004,-2.628516813274473e-05,5.699133180314675e-05
-3.462962922640145e-05,-6.198832124937326e-05,-2.8104335797252133e-05,5.66388298466336e-05
-3.331085099489428e-05,4.031734715681523e-05,-2.6430952857481316e-05,5.953278741799295e-05
-2.733377732511144e-05,0.00013927016698289663,-2.1689045752282254e-05,6.073276745155454e-05
-2.078914621961303e-05,0.00021678305347450078,-2.2908372557139955e-05,5.847290231031366e-05
-1.8660039131646045e-05,0.0002172174717998132,-2.7433396098786034e-05,5.773540760856122e-05
-2.06768363568699e-05,0.00012676804908551276,-2.6462284949957393e-05,5.803099338663742e-05
-1.9492528736009263e-05,2.880575038943789e-06,-2.345737266296055e-05,5.922004856984131e-05
-2.3461800083168782e-05,-0.0001244686427526176,-2.887550726882182e-05,5.3156712965574116e-05
-3.44790423696395e-05,-0.00021994070266373456,-3.856558760162443e-05,4.226808960083872e-05
-4.324709152569994e-05,-0.0001939639769261703,-4.058604099554941e-05,3.941676550311968e-05
-4.331523450673558e-05,-6.241401570150629e-05,-3.585933882277459e-05,4.3574364099185914e-05
-3.7273286579875275e-05,6.535825377795845e-05,-2.947437678813003e-05,4.9253416364081204e-05
-3.143847789033316e-05,0.00011140070273540914,-2.462290649418719e-05,5.1799750508507714e-05
-2.881983164115809e-05,8.311175042763352e-05,-1.87766181625193e-05,5.341983342077583e-05
-2.8373970053507946e-05,7.329495019803289e-06,-1.556841380079277e-05,5.5245131079573184e-05
-2.9988128517288715e-05,-5.1907074521295726e-05,-1.4992138858360704e-05,5.607806451735087e-05
-3.1464278436033055e-05,-4.7055371396709234e-05,-1.1459877896413673e-05,5.7929686590796337e-05
-2.9728105801041238e-05,-1.579668060003314e-05,-4.076965979038505e-06,6.075484270695597e-05
-2.494674117770046e-05,-1.7124106307164766e-05,3.691916617754032e-06,6.085839413572103e-05
-2.0293975467211567e-05,-4.5638586016139016e-05,7.298501714103622e-06,5.797287303721532e-05
-1.9453094864729792e-05,-6.0112997743999586e-05,9.386018064105883e-06,5.609420622931793e-05
-2.0427891286090016e-05,-4.6371340431505814e-05,1.3141351701051462e-05,5.8595669543137774e-05
-2.3526161385234445e-05,-2.3380283892038278e-05,1.4780042874917854e-05,6.191779539221898e-05
-2.818060602294281e-05,-1.9928304027416743e-05,1.3445171134662814e-05,6.08285736234393e-05
-3.1962088542059064e-05,-2.4987582946778275e-05,1.2930926459375769e-05,5.6959626817842945e-05
-3.187179390806705e-05,-1.4156369616102893e-05,1.321172749157995e-05,5.681605398422107e-05
-2.6830237402464263e-05,4.326113412389532e-06,1.3414300156000536e-05,5.9983616665704176e-05
-2.088146356982179e-05,1.2383076864352915e-05,1.0332155397918541e-05,6.245392432902008e-05
-1.8632603314472362e-05,3.3993084798567e-05,8.32753812574083e-06,6.38338242424652e-05
-1.6524185411981307e-05,6.870427750982344e-05,1.0593347724352498e-05,6.150923582026735e-05
-1.5966506907716393e-05,7.499434286728501e-05,1.474254167987965e-05,5.972404687781818e-05
-1.905187491502147e-05,4.791747051058337e-05,1.8846860257326625e-05,5.9468558902153745e-05
-2.2979482309892774e-05,1.4973273209761828e-05,2.0817702534259297e-05,5.994992170599289e-05
-2.2773610908188857e-05,3.513288902468048e-05,1.776762292138301e-05,6.048572686268017e-05
-1.7751632185536437e-05,0.00011672008986352012,6.339651008602232e-06,6.009706703480333e-05
-1.4603609088226222e-05,0.00016605581913609058,-6.924693479959387e-06,5.7045224821195006e-05
-1.7232045138371177e-05,0.00020628391939681023,-1.8002263459493406e-05,4.931380317430012e-05
-2.3501397663494572e-05,0.00029266224009916186,-3.199296770617366e-05,4.3658346839947626e-05
-2.9202694349805824e-05,0.0003588192048482597,-4.496997280512005e-05,3.793759606196545e-05
-3.0592025723308325e-05,0.0003024536417797208,-4.9213711463380605e-05,2.7700736609403975e-05
-2.8075879527023062e-05,0.00011948370229220018,-4.65432349301409e-05,2.074478834401816e-05
-2.6779944164445624e-05,-2.506633427401539e-05,-4.190844629192725e-05,2.06840195460245e-05
-2.856989885913208e-05,-2.4335049602086656e-05,-3.5080556699540466e-05,2.6593073926051147e-05
-2.8325346647761762e-05,4.7267811169149354e-05,-2.9502769393729977e-05,3.393034421605989e-05
-2.7166892323293723e-05,8.824865653878078e-05,-2.650865280884318e-05,3.944180571124889e-05
-2.6330997570767067e-05,8.389983122469857e-05,-2.2440248358179815e-05,4.5180342567618936e-05
-2.390669396845624e-05,5.9163750847801566e-05,-1.3062871403235476e-05,4.859390901401639e-05
-2.2108395569375716e-05,2.6073705157614313e-05,-3.800698323175311e-06,4.8492391215404496e-05
-2.163434328394942e-05,-1.6030140614020638e-05,-1.5424695902765961e-06,4.842897396883927e-05
-2.081943239318207e-05,-8.233591506723315e-05,-3.4184879496024223e-06,5.050632171332836e-05
-2.0411946024978533e-05,-0.00014739246398676187,-1.7128955960288295e-06,5.393499668571167e-05
-2.4679820853634737e-05,-0.00015460177382919937,4.44556235379423e-06,5.7853234466165304e-05
-2.920224505942315e-05,-0.00010921274952124804,7.3476862780808005e-06,6.178282637847587e-05
-2.9388376788119785e-05,-6.126480002421886e-05,1.4641275924986985e-07,6.348562601488084e-05
-2.7940281142946333e-05,-3.274462869740091e-05,-9.690124898042995e-06,6.019562715664506e-05
-3.272032336099073e-05,-2.2445148715632968e-05,-1.2120874998799991e-05,5.518839680007659e-05
-3.902756725437939e-05,-3.053325417567976e-05,-1.0917263352894224e-05,5.1956336392322555e-05
-3.766912777791731e-05,-4.672761133406311e-05,-7.063277280394686e-06,5.255397263681516e-05
-3.03553188132355e-05,-4.786047793459147e-05,-7.351508884312352e-06,5.439291271613911e-05
-1.9955938114435412e-05,-3.070678576477803e-05,-1.32025706989225e-05,5.6385601055808365e-05
-1.6769670764915645e-05,-2.51687833952019e-05,-1.4240855307434686e-05,6.089724047342315e-05
-1.96216169570107e-05,-2.8663194825639948e-05,-6.982227205298841e-06,6.490803207270801e-05
-1.976657222257927e-05,-2.186493293265812e-05,-1.0623303836609921e-07,6.844048039056361e-05
-1.6413450794061646e-05,-7.35834100851207e-06,9.630987278796965e-07,7.008785178186372e-05
-1.1417564564908389e-05,8.082150088739581e-06,-3.965428732044529e-06,7.101069058990106e-05
-1.0404880413261708e-05,1.0318222848582081e-05,-7.805310815456323e-06,6.787743768654764e-05
-1.4031716091267299e-05,9.004286766867153e-06,-8.719725883565843e-06,6.529588426928967e-05
-1.842171695898287e-05,1.867560058599338e-05,-1.0196641596849076e-05,6.924134504515678e-05
-1.9194718333892524e-05,2.9801909477100708e-05,-1.1857549907290377e-05,7.109814032446593e-05
-2.0628047423087992e-05,3.623084194259718e-05,-1.2312550097703934e-05,6.96226634318009e-05
-2.4580058379797265e-05,3.602322976803407e-05,-1.0960996405628975e-05,6.645760004175827e-05
-3.073080370086245e-05,2.752686668827664e-05,-9.20270485949004e-06,6.602604116778821e-05
-3.578584801289253e-05,2.2777456251787953e-05,-7.203945187939098e-06,6.686417327728122e-05
-3.528513843775727e-05,3.806769018410705e-05,-6.914868663443485e-06,6.611152639379725e-05
-3.10263094434049e-05,6.5200227254536e-05,-7.632432243553922e-06,6.45582185825333e-05
-2.8077367460355163e-05,8.959686965681612e-05,-9.546902219881304e-06,6.573252176167443e-05
-2.8951961212442257e-05,0.00011040328536182642,-1.0147908142243978e-05,6.684866093564779e-05
-3.1896688597043976e-05,0.0001384747592965141,-7.047634426271543e-06,6.623341323575005e-05
-3.355929220560938e-05,0.00017439646762795746,-2.484360948074027e-06,6.637599290115759e-05
-3.135357110295445e-05,0.0001820120814954862,-6.811176262999652e-07,6.592248973902315e-05
-3.005666621902492e-05,0.00011256159632466733,-2.562087274782243e-06,6.514046981465071e-05
-3.0854513170197606e-05,7.5992124948243145e-06,-7.128983725124272e-06,6.500401650555432e-05
-3.122260750387795e-05,-6.563054921571165e-05,-1.0034437764261384e-05,6.636418402194977e-05
-3.0524741305271164e-05,-0.00010216588998446241,-1.1434029147494584e-05,6.616333121201023e-05
-2.7351501557859592e-05,-8.029431774048135e-05,-1.1455789717729203e-05,6.261354428716004e-05
-2.299863626831211e-05,-1.905554745462723e-05,-1.2005373719148338e-05,5.885272184968926e-05
-2.2107984477770515e-05,3.3437136153224856e-05,-1.6789790606708266e-05,5.8663743402576074e-05
-2.3025640984997153e-05,7.970857404870912e-05,-1.8513030227040872e-05,6.213004235178232e-05
-2.3775042791385204e-05,0.00012623632210306823,-1.8900447685155086e-05,6.397745892172679e-05
-2.460208816046361e-05,0.00013980097719468176,-1.596833681105636e-05,5.971503196633421e-05
-2.4198756364057772e-05,9.917713759932667e-05,-1.2280197552172467e-05,5.309874177328311e-05
-2.414476875856053e-05,3.374647712917067e-05,-1.301047632296104e-05,4.887026807409711e-05
-2.4683569790795445e-05,-3.937049405067228e-05,-1.2090845302736852e-05,4.97805121995043e-05
-2.5426554202567786e-05,-7.950740837259218e-05,-1.217324097524397e-05,5.4020048992242664e-05
-2.6991616323357448e-05,-4.3032661778852344e-05,-1.52945958689088e-05,5.773127850261517e-05
-2.6503161279833876e-05,3.277582072769292e-05,-1.6321810107911006e-05,5.830918235005811e-05
-2.5330202333861962e-05,8.852102473611012e-05,-1.3455104635795578e-05,5.8124227507505566e-05
-2.409764056210406e-05,0.00010335901606595144,-1.3675683476321865e-05,5.8866102335741743e-05
-2.3229746147990227e-05,8.732228161534294e-05,-1.5747675206512213e-05,5.952416540822014e-05
-2.2176036509335972e-05,5.861955287400633e-05,-1.420827720721718e-05,5.735845843446441e-05
-2.2376621927833185e-05,4.230433114571497e-05,-1.0355903214076534e-05,5.521406274056062e-05
-2.366489206906408e-05,4.776268906425685e-05,-9.610314009478316e-06,5.400408190325834e-05
-2.434726047795266e-05,6.848732300568372e-05,-1.0686494533729274e-05,5.3615043725585565e-05
-2.4019678676268086e-05,9.378392860526219e-05,-8.749893822823651e-06,5.5312229960691184e-05
-2.3750208129058592e-05,0.00010993283649440855,-4.235741471347865e-06,5.865076309419237e-05
-2.4407734599662945e-05,0.00011372369772288948,1.0161596719626687e-06,5.960002454230562e-05
-2.4564480554545298e-05,0.00011706093937391415,5.948174475634005e-06,5.499035614775494e-05
-2.62884368567029e-05,0.0001162292537628673,1.0618929081829265e-05,5.045024954597466e-05
-2.919526923506055e-05,9.250183939002454e-05,9.250739822164178e-06,5.1466569857439026e-05
-3.242514867451973e-05,3.81025492970366e-05,3.511714226078766e-07,5.588871135842055e-05
-3.7388432247098535e-05,-2.5250737962778658e-05,-8.925178917706944e-06,5.817593046231195e-05
-4.304214598960243e-05,-5.670591053785756e-05,-1.3279291124490555e-05,5.747775503550656e-05
-4.414697104948573e-05,-4.771258318214677e-05,-1.6060379493865184e-05,5.484079156303778e-05
-4.096726843272336e-05,-2.2369742509908974e-05,-1.705782960925717e-05,5.0312704843236133e-05
-3.534088682499714e-05,-2.4949396902229637e-05,-1.1864010957651772e-05,4.721087316283956e-05
-2.93700704787625e-05,-6.674038013443351e-05,-3.1655715702072484e-06,4.645792068913579e-05
-2.57106039498467e-05,-0.0001072407394531183,1.6908552424865775e-06,4.850617915508337e-05
-2.387632594036404e-05,-0.00011671131505863741,-3.0678214102408674e-07,5.51562370674219e-05
-2.2719596017850563e-05,-9.592701098881662e-05,-3.2753939649410313e-06,5.554235394811258e-05
-2.0253146431059577e-05,-6.011744335410185e-05,-6.110604317655088e-06,5.174724356038496e-05
-1.807447915780358e-05,-1.2804310244973749e-05,-6.9779835030203685e-06,5.277609307086095e-05
-1.870463165687397e-05,4.363848711363971e-05,-8.184815669665113e-06,5.731912096962333e-05
-1.9490102204144932e-05,9.98850300675258e-05,-1.3665130609297194e-05,5.907843660679646e-05
-1.9487575627863407e-05,0.00015448193880729377,-1.7740547264111228e-05,5.838015931658447e-05
-1.993752084672451e-05,0.00019667412561830133,-1.968838114407845e-05,5.529685950023122e-05
-2.2626227291766554e-05,0.00019475867156870663,-2.3655547920498066e-05,5.223759944783524e-05
-2.5073355573113076e-05,0.00014775048475712538,-2.9016842745477334e-05,5.403334944276139e-05
-2.558244887040928e-05,9.894544200506061e-05,-3.0611816328018904e-05,5.9311947552487254e-05
-2.4803441192489117e-05,7.10666790837422e-05,-2.790301186905708e-05,6.346120790112764e-05
-2.406456769676879e-05,5.268038876238279e-05,-2.154718094971031e-05,6.550230318680406e-05
-2.3631127987755463e-05,2.7828393285744824e-05,-1.4846154044789728e-05,6.39339632471092e-05
-2.279623004142195e-05,-4.515654836723115e-06,-1.3296476936375257e-05,6.139020115369931e-05
-2.265393231937196e-05,-3.335154542583041e-05,-1.742140739224851e-05,6.13147858530283e-05
-2.6365762096247636e-05,-4.942184386891313e-05,-2.1330521121853963e-05,6.022545858286321e-05
-3.3158725273096934e-05,-7.713079685345292e-05,-2.1592766643152572e-05,5.76572710997425e-05
-3.559518154361285e-05,-0.00014637684216722846,-1.6979278370854445e-05,5.277039235807024e-05
-3.177670078002848e-05,-0.00018894954700954258,-9.64465561992256e-06,4.840235851588659e-05
-2.746510290307924e-05,-0.000119659976917319,-3.944430773117347e-06,4.8776972107589245e-05
-2.2724398149875924e-05,-9.116753972193692e-06,-2.5234751319658244e-06,5.377386696636677e-05
-1.3868941096006893e-05,4.929822534904815e-05,-3.1363633752334863e-06,6.239023787202314e-05
-7.26487905922113e-06,7.523781096097082e-05,-1.200964334202581e-06,7.123732939362526e-05
-1.018039711198071e-05,0.00011344224913045764,4.134985829296056e-06,7.035247108433396e-05
-1.5946612620609812e-05,0.00015839311527088284,1.0362132343288977e-05,6.385348387993872e-05
-2.209973354183603e-05,0.00015537171566393226,1.1501014341774862e-05,5.7787234254647046e-05
-3.378076871740632e-05,6.692573515465483e-05,1.5159446320467396e-06,5.062959098722786e-05
-4.5999448047950864e-05,-3.0393595807254314e-05,-1.3790681805403437e-05,4.8209476517513394e-05
-4.9389698688173667e-05,-2.8960492272744887e-05,-2.0643983589252457e-05,5.39736429345794e-05
-4.355416967882775e-05,2.721758391999174e-05,-2.1421055862447247e-05,6.196068716235459e-05
-3.963827475672588e-05,5.293001959216781e-05,-1.908093508973252e-05,6.66756895952858e-05
-3.853462840197608e-05,4.324827386881225e-05,-1.825022445700597e-05,6.772625056328252e-05
-3.684026523842476e-05,2.108741864503827e-05,-2.2735623133485205e-05,6.920044688740745e-05
-3.532078699208796e-05,2.234715339000104e-06,-2.8612641472136602e-05,6.870766083011404e-05
-3.70866728189867e-05,-6.723436854372267e-06,-2.999206117237918e-05,6.723292608512565e-05
-3.8432048313552514e-05,-1.0088414455822203e-05,-2.475530345691368e-05,6.581449997611344e-05
-3.6614375858334824e-05,-1.1803974302893039e-05,-1.8448035916662775e-05,6.40748257865198e-05
-3.368309626239352e-05,1.9432736735325307e-06,-1.4986418136686552e-05,6.039916479494423e-05
-3.228435889468528e-05,3.40919395966921e-05,-1.3023081919527613e-05,5.333720037015155e-05
-3.1864605261944234e-05,5.6118271459126845e-05,-1.1107776117569301e-05,4.235263986629434e-05
-3.139081672998145e-05,4.40963231085334e-05,-1.1209966942260507e-05,3.34862525050994e-05
-3.0461771530099213e-05,2.307845716131851e-05,-1.341857023362536e-05,3.248449138482101e-05
-2.7097161364508793e-05,4.1139559471048415e-05,-1.4091468074184377e-05,3.384795491001569e-05
-2.4169221433112398e-05,0.00010892216232605278,-9.269809197576251e-06,3.385470336070284e-05
-2.521790338505525e-05,0.0001710815995465964,-2.318440010640188e-06,3.533832568791695e-05
-3.095670763286762e-05,0.000143639394082129,9.962361673387932e-07,3.785578519455157e-05
-3.606165773817338e-05,-9.94489346339833e-06,-5.081175459054066e-06,3.462458698777482e-05
-3.480599116301164e-05,-0.00018210157577414066,-1.4307211131381337e-05,3.190152710885741e-05
-3.001275399583392e-05,-0.00021705537801608443,-1.7979957192437723e-05,3.530836329446174e-05
-2.918754398706369e-05,-0.00014168383495416492,-1.9110886569251306e-05,4.04634811275173e-05
-2.9221295335446484e-05,-7.854915747884661e-05,-1.5288369468180463e-05,4.572877878672443e-05
-2.7065019821748137e-05,-4.576149513013661e-05,-6.968953130126465e-06,5.2281935495557263e-05
-2.2173671823111363e-05,-2.033596501860302e-05,1.614389248061343e-06,5.449718446470797e-05
-1.6954752936726436e-05,1.0380539606558159e-05,6.0378752095857635e-06,5.765171590610407e-05
-1.5104003978194669e-05,4.269397322786972e-05,5.057149792264681e-06,6.470418884418905e-05
-1.790610076568555e-05,5.937502282904461e-05,3.1367451356345555e-06,6.933362601557747e-05
-2.0996190869482234e-05,7.015552546363324e-05,7.952148450840468e-08,7.055562309687957e-05
-2.1015324819018133e-05,5.502492786035873e-05,-4.304698904888937e-06,6.88654399709776e-05
-2.1571249817498028e-05,-1.213043901771016e-06,-8.84755081642652e-06,6.346556619973853e-05
-2.3321266780840233e-05,-5.718600732507184e-05,-1.1490188626339659e-05,6.0135076637379825e-05
-2.157398921553977e-05,-7.244155858643353e-05,-1.3482182112056762e-05,6.151245906949043e-05
-1.8166323570767418e-05,-7.260040001710877e-05,-1.4916340660420246e-05,6.294020568020642e-05
-1.8145454305340536e-05,-8.118354162434116e-05,-1.4244276826502755e-05,6.205129466252401e-05
-1.8932107195723802e-05,-0.00010699350241338834,-9.884263818094041e-06,6.149359251139686e-05
-1.6851519831106998e-05,-0.00015361772966571152,-4.890374839305878e-06,6.28794077783823e-05
-1.603290729690343e-05,-0.00019651155162137002,-4.7619691940781195e-06,6.217711779754609e-05
-1.792487091734074e-05,-0.0002123169251717627,-7.87099725130247e-06,5.635010529658757e-05
-1.6866404621396214e-05,-0.00018654474115464836,-9.253855751012452e-06,5.021812467020936e-05
-1.2035166037094314e-05,-0.00011452854232629761,-7.784838089719415e-06,5.021746255806647e-05
-9.473080353927799e-06,-1.729142968542874e-05,-4.618817456503166e-06,5.374088868848048e-05
-1.2666384463955183e-05,6.29687201580964e-05,-2.2130570869194344e-06,5.8276476920582354e-05
-1.6921288988669403e-05,0.0001244950108230114,-3.2504385671927594e-06,6.404945452231914e-05
-2.0113995560677722e-05,0.0001978083309950307,-5.853922175447224e-06,6.654894241364673e-05
-1.9165718185831793e-05,0.00027023590519092977,-1.2640125532925595e-05,6.37174307485111e-05
-1.3427425074041821e-05,0.00027726544067263603,-2.1395184376160614e-05,6.441882578656077e-05
-1.061719285644358e-05,0.0002202384202973917,-2.3434413378708996e-05,7.196958176791668e-05
-9.990679245674983e-06,0.00020934574422426522,-2.235752617707476e-05,7.703786832280457e-05
-6.475318059528945e-06,0.0002417428040644154,-2.4263514205813408e-05,7.287092739716172e-05
-9.799518011277542e-06,0.00020107379532419145,-2.3576199964736588e-05,6.723244587192312e-05
-1.9955892639700323e-05,0.00016053105355240405,-1.882737888081465e-05,6.420085992431268e-05
-2.61388995568268e-05,0.00018188210378866643,-1.7016598576446995e-05,6.127295637270436e-05
-2.5886814910336398e-05,0.00019693771901074797,-1.9410057575441897e-05,6.231202860362828e-05
-2.2271968191489577e-05,0.0001443771179765463,-1.9765031538554467e-05,6.674815813312307e-05
-1.895086097647436e-05,1.2648924894165248e-05,-1.894030901894439e-05,6.372194911818951e-05
-2.1114297851454467e-05,-0.00011189165525138378,-2.1481137082446367e-05,5.223090192885138e-05
-2.900201980082784e-05,-0.00012956409773323685,-2.138895433745347e-05,4.2081799620063975e-05
-3.729642048710957e-05,-7.765813643345609e-05,-1.5061650628922507e-05,4.0409333450952545e-05
-4.384187195682898e-05,-6.984506762819365e-05,-1.0205670150753576e-05,4.369434100226499e-05
-4.30551590397954e-05,-7.583972910651937e-05,-9.529890121484641e-06,5.064984361524694e-05
-3.490576273179613e-05,-3.067226134589873e-05,-8.58970179251628e-06,5.9770187363028526e-05
-2.6936808353639208e-05,3.727161310962401e-05,-4.938498022966087e-06,6.581035268027335e-05
-2.577976010798011e-05,7.245019514812157e-05,-1.4985107554821298e-06,6.662574742222205e-05
-3.0479841370834038e-05,7.534636097261682e-05,-1.0849512364075053e-06,6.525500793941319e-05
-3.642429146566428e-05,6.759192910976708e-05,-5.642687938234303e-06,6.77874922985211e-05
-3.851078145089559e-05,5.373241947381757e-05,-1.2629513548745308e-05,7.538272620877251e-05
-3.832733636954799e-05,3.547917731339112e-05,-1.3905795640312135e-05,8.529022306902334e-05
-4.1889972635544837e-05,1.937721208378207e-05,-8.139585588651244e-06,9.45002248045057e-05
-4.576992432703264e-05,1.2969399904250167e-05,-5.245656666374998e-06,0.0001011911008390598
-4.863254798692651e-05,1.545103805256076e-05,-7.240513696160633e-06,0.00010321892477804795
-5.291092747938819e-05,2.387038512097206e-05,-8.281770533358213e-06,9.987162047764286e-05
-5.4011165047995746e-05,9.124061762122437e-06,-8.296247870021034e-06,9.697489440441132e-05
-4.622715641744435e-05,-2.7718249839381315e-05,-6.124957053543767e-06,0.00010128614667337388
-3.612721775425598e-05,-4.4865155359730124e-05,-6.675851977888669e-07,0.00010614320490276441
-2.96583712042775e-05,-5.42404486623127e-05,5.44669319424429e-06,0.00010664607543731108
-2.302103712281678e-05,-8.05170348030515e-05,9.251036317436956e-06,0.00010567352001089603
-1.0242068128718529e-05,-0.00010338024731026962,1.0525099241931457e-05,0.0001090137375285849
-7.793892109475564e-07,-7.864260260248557e-05,7.967093551997095e-06,0.00011523324792506173
-1.6428319895567256e-06,-7.491474207199644e-06,2.5696140255604405e-06,0.00011705001816153526
-5.323712684912607e-06,6.367715104715899e-05,-1.945837766470504e-06,0.0001147189104813151
-1.1703800737450365e-05,8.84971086634323e-05,-1.896243730925562e-07,0.00011189343786099926
-2.0140856577199884e-05,7.544793334091082e-05,1.2183269291199395e-06,0.00010824904893524945
-2.6251185772707686e-05,7.670815830351785e-05,-3.423034968363936e-06,0.00010602937254589051
-2.6487365175853483e-05,9.627110557630658e-05,-7.523427484557033e-06,0.00010481526987859979
-2.4036338800215162e-05,9.9654593213927e-05,-5.831408543599537e-06,0.00010129880683962256
-1.9541126675903797e-05,7.15817732270807e-05,4.858816282649059e-07,9.655692701926455e-05
-1.5939862350933254e-05,5.980246714898385e-05,6.461332759499783e-06,9.579419565852731e-05
-1.6643327398924157e-05,6.462402961915359e-05,6.204463716130704e-06,9.464807226322591e-05
-2.0323532226029783e-05,4.2350755393272266e-05,-6.902044447087974e-07,8.571112266508862e-05
-2.3549313482362777e-05,-5.548131412069779e-06,-8.336276550835464e-06,7.488893606932834e-05
-2.401401798124425e-05,-2.6586871172185056e-05,-1.1556254321476445e-05,6.964080239413306e-05
-2.303914152435027e-05,-4.504406660998939e-06,-8.48864783620229e-06,6.859090353827924e-05
-2.2173191609908827e-05,2.1253081285976805e-05,-5.134186267241603e-06,6.698213110212237e-05
-2.460908035573084e-05,2.0481766114244238e-05,-5.690538728231331e-06,6.0344827943481505e-05
-2.5361361622344702e-05,4.236073436914012e-06,-6.571064659510739e-06,5.339301424100995e-05
-2.23874540097313e-05,-1.2587547359999007e-07,-6.905384907440748e-06,5.450064054457471e-05
-1.8012739019468427e-05,1.0246868441754486e-05,-8.411266207986046e-06,5.684835196007043e-05
-1.400948349328246e-05,2.983599915751256e-05,-8.641392014396843e-06,5.398198845796287e-05
-1.4363022273755632e-05,1.2027306183881592e-05,-7.649081453564577e-06,4.5381377276498824e-05
-1.9231909391237423e-05,-8.441448881058022e-05,-3.5415487218415365e-06,3.3633816201472655e-05
-2.622187639644835e-05,-0.00017800969362724572,-2.578192606961238e-06,2.478663191141095e-05
-3.084336640313268e-05,-0.00014903160627000034,-8.850164704199415e-06,2.253876118629705e-05
-2.8707909223157912e-05,-5.4432643082691357e-05,-9.869901987258345e-06,2.964593659271486e-05
-2.5206409191014245e-05,-2.3120235709939152e-05,-9.001460966828745e-06,3.5416349419392645e-05
-2.554312777647283e-05,-5.469138341140933e-05,-1.1773827282013372e-05,3.2275598641717806e-05
-2.8198430300108157e-05,-7.297845877474174e-05,-1.426261860615341e-05,3.0446348318946548e-05
-3.203817686880939e-05,-4.932739830110222e-05,-1.4198784811014775e-05,2.9245027690194547e-05
-3.1658655643695965e-05,-1.0272654435539152e-05,-1.1309077308396809e-05,2.9271603125380352e-05
-2.7226862584939227e-05,3.272341928095557e-05,-1.1475942301331088e-05,2.9812830689479597e-05
-2.8305688829277642e-05,8.194962720153853e-05,-1.2546847756311763e-05,3.228834248147905e-05
-3.213766831322573e-05,0.00011785597598645836,-1.4291958905232605e-05,3.4268665331183e-05
-3.428089257795364e-05,0.00012941549357492477,-1.8763421394396573e-05,3.520588143146597e-05
-3.683251634356566e-05,0.00013935938477516174,-2.5330844437121414e-05,3.401064168429002e-05
-3.956675936933607e-05,0.00015703041572123766,-2.7917158149648458e-05,3.170548006892204e-05
-3.88443331758026e-05,0.00014741253107786179,-2.3580076231155545e-05,3.563546488294378e-05
-3.4664684790186584e-05,9.93855283013545e-05,-1.6465759472339414e-05,4.057225669384934e-05
-3.0430961487581953e-05,4.2025279981317e-05,-1.217386125063058e-05,4.084168904228136e-05
-2.6731499019660987e-05,-1.5489964425796643e-05,-1.259136388398474e-05,3.784889486269094e-05
-2.459687675582245e-05,-8.197888382710516e-05,-1.1856231139972806e-05,3.809780173469335e-05
-2.5381230443599634e-05,-0.00012738483201246709,-4.453544079296989e-06,4.18892886955291e-05
-2.689865868887864e-05,-0.00011447913129813969,7.141216883610468e-06,4.51744745078031e-05
-2.370385300309863e-05,-5.5393298680428416e-05,1.7755775843397714e-05,4.422374695423059e-05
-2.009568561334163e-05,2.656285005286918e-06,2.5582297894288786e-05,4.302059460314922e-05
-2.2143498426885344e-05,3.9397215005010366e-05,2.8682599804596975e-05,4.343253021943383e-05
-2.379619218118023e-05,6.993688293732703e-05,2.550055432948284e-05,4.136344796279445e-05
-2.0593684894265607e-05,8.603567403042689e-05,1.813418020901736e-05,3.428955460549332e-05
-1.8519249351811595e-05,9.546367800794542e-05,1.2174478797533084e-05,2.9929295124020427e-05
-1.966101990547031e-05,0.0001650992635404691,6.088468126108637e-06,3.3271855500061065e-05
-2.3377177058137022e-05,0.0002837260253727436,-5.248578418104444e-06,3.27124071191065e-05
-2.5326740797027014e-05,0.00035148696042597294,-2.149723150068894e-05,3.0379844247363508e-05
-2.6336008886573836e-05,0.00034404342295601964,-3.0369312298716977e-05,3.345445293234661e-05
-3.0484103263006546e-05,0.0003046082565560937,-3.159392508678138e-05,3.375121741555631e-05
-3.161664062645286e-05,0.000260042812442407,-3.418921187403612e-05,2.8347058105282485e-05
-3.02777043543756e-05,0.00016262324061244726,-3.933283005608246e-05,1.826223888201639e-05
-3.0298800993477926e-05,-4.261747108103009e-06,-4.476052345125936e-05,7.95561481936602e-06
-3.571037814253941e-05,-0.00017025558918248862,-5.075410444987938e-05,-4.426412033353699e-06
-4.343758700997569e-05,-0.0002505560405552387,-5.1004401029786095e-05,-1.4096103768679313e-05
-4.789796003024094e-05,-0.0002039231185335666,-4.350215021986514e-05,-1.718567182251718e-05
-4.820230242330581e-05,-8.458569936919957e-05,-3.0291485018096864e-05,-7.879516488173977e-06
-3.85043713322375e-05,2.4830816983012483e-05,-1.3000887520320248e-05,1.318011163675692e-05
-2.3114193027140573e-05,8.04677329142578e-05,-4.209132242749547e-08,3.280438977526501e-05
-1.2295036867726594e-05,9.209066047333181e-05,1.5847904251131695e-06,4.63225478597451e-05
-1.068438905349467e-05,7.066458056215197e-05,-6.4509235926379915e-06,5.563700324273668e-05
-1.5759223970235325e-05,2.5542729417793453e-05,-1.473792417527875e-05,6.11934665357694e-05
-1.995662387344055e-05,-3.1365107133751735e-05,-1.8251364963361993e-05,5.875993883819319e-05
-1.956895721377805e-05,-7.88736215326935e-05,-1.566539503983222e-05,4.982813698006794e-05
-1.707405135675799e-05,-9.544179920339957e-05,-9.953235348802991e-06,3.9168739021988586e-05
-1.5703779354225844e-05,-8.064795838436112e-05,-7.329128493438475e-06,3.385958916624077e-05
-1.537943899165839e-05,-3.2443145755678415e-05,-1.3122539712639991e-05,3.3149593946291134e-05
-1.576070826558862e-05,3.5081935493508354e-05,-2.1935471522738226e-05,3.5324821510585025e-05
-1.9385201085242443e-05,5.2720086387125775e-05,-2.4168588424799964e-05,3.8751993997721e-05
-2.6216870537609793e-05,-7.666187229915522e-06,-1.73393746081274e-05,4.2006122384918854e-05
-2.9973210985190235e-05,-5.5388209148077294e-05,-9.489659532846417e-06,4.4653788791038096e-05
-2.7937065169680864e-05,-4.218826143187471e-05,-3.5075645428150892e-06,4.775428169523366e-05
-2.4679489797563292e-05,-2.7731766749639064e-05,8.270039302260557e-07,4.635257937479764e-05
-2.005215901590418e-05,-4.8498695832677186e-05,2.3085631255526096e-06,4.51039923063945e-05
-1.648815486987587e-05,-8.65665715537034e-05,3.2158450267161243e-06,4.854667713516392e-05
-1.732107557472773e-05,-0.0001046254183165729,1.5769479659866192e-06,4.900190469925292e-05
-2.0819230485358275e-05,-7.491767610190436e-05,-2.873251560231438e-06,4.587912553688511e-05
-2.82983819488436e-05,-4.094446558156051e-05,-7.788782568241004e-06,4.227057070238516e-05
-3.365083102835342e-05,-6.411416688933969e-05,-1.0754154573078267e-05,4.340109080658294e-05
-2.897445847338531e-05,-0.00011510050535434857,-8.534441803931259e-06,4.909482959192246e-05
-1.971925848920364e-05,-0.00010916643077507615,-4.107961331101251e-07,5.242978295427747e-05
-1.751326271914877e-05,-5.591318040387705e-05,7.618710696988273e-06,5.7512312196195126e-05
-2.3811577193555422e-05,4.404751621223113e-07,1.1200229891983327e-05,6.472101813415065e-05
-3.024067154910881e-05,3.109216413577087e-05,1.2915358638565522e-05,6.804395525250584e-05
-2.841853529389482e-05,4.8705645895097405e-05,1.2841115676565096e-05,6.863825547043234e-05
-2.3061149477143772e-05,0.0001048058329615742,1.0251988896925468e-05,6.900706648593768e-05
-2.2922669813851826e-05,0.00020263543410692364,3.916898549505277e-06,6.614388985326514e-05
-2.974098788399715e-05,0.0002594494726508856,-4.142028046771884e-06,5.8366542361909524e-05
-3.657760316855274e-05,0.00021839721011929214,-1.3197374755691271e-05,5.25889263371937e-05
-3.4928434615721926e-05,0.00013911875430494547,-2.0526518710539676e-05,5.55393380636815e-05
-2.9067594368825667e-05,0.0001195616350742057,-2.3969676476554014e-05,6.300394306890666e-05
-2.9394735975074582e-05,0.00016887848323676735,-2.660446807567496e-05,6.673168536508456e-05
-3.4077122109010816e-05,0.00018971007375512272,-3.086138895014301e-05,6.17751429672353e-05
-3.522771658026613e-05,0.00013909401604905725,-3.3773827453842387e-05,5.179691652301699e-05
-3.406561882002279e-05,6.0408874560380355e-05,-3.2684882171452045e-05,4.6446832129731774e-05
-3.0294584576040506e-05,6.232479790924117e-06,-2.9714909032918513e-05,4.774308763444424e-05
-2.623990258143749e-05,9.174055776384193e-06,-2.5401415769010782e-05,5.4750948038417846e-05
-2.4443106667604297e-05,3.613137232605368e-05,-2.2826519852969795e-05,6.412559014279395e-05
-2.7447194952401333e-05,3.338081296533346e-05,-2.1784411728731357e-05,6.689700239803642e-05
-3.163875953759998e-05,6.90129218128277e-06,-2.092152317345608e-05,6.0805745306424797e-05
-3.0061213692533784e-05,-1.9125020116916858e-05,-2.1003304937039502e-05,5.80841806367971e-05
-2.5838424335233867e-05,-6.58623412164161e-06,-1.7128500985563733e-05,6.36059558019042e-05
-1.9217079170630313e-05,2.1205099983490072e-05,-7.195835223683389e-06,7.510877912864089e-05
-1.745429472066462e-05,2.8852618925157003e-05,-3.9280416785913985e-06,7.800951425451785e-05
-2.056882658507675e-05,1.1633322174020577e-05,-9.435188076167833e-06,7.022288627922535e-05
-2.254680839541834e-05,-4.160020034760237e-05,-1.2838682778237853e-05,6.35626056464389e-05
-2.4436272724415176e-05,-0.00010683503205655143,-8.92177558853291e-06,6.196829053806141e-05
-3.0130848244880326e-05,-0.0001189118847833015,2.568655418144772e-06,5.946175951976329e-05
-3.895932240993716e-05,-9.387102909386158e-05,1.5761172107886523e-05,5.2144470828352496e-05
-4.424546204973012e-05,-9.997907181968912e-05,2.3087801309884526e-05,4.892473225481808e-05
-4.77602043247316e-05,-0.00010979945363942534,2.8528769689728506e-05,5.432275793282315e-05
-4.914050077786669e-05,-7.500986248487607e-05,3.2993117201840505e-05,6.35194664937444e-05
-4.778536094818264e-05,-1.6111613149405457e-05,3.567091334844008e-05,7.017745519988239e-05
-4.41714764747303e-05,3.8136960938572884e-05,3.860228389385156e-05,7.542326056864113e-05
-4.006862945971079e-05,0.00013186006981413811,3.5303357435623184e-05,7.917035691207275e-05
-3.565181395970285e-05,0.0002618076978251338,2.1367204681155272e-05,7.925077807158232e-05
-3.249138535466045e-05,0.0003342650888953358,7.832162737031467e-06,7.430493860738352e-05
-3.060362723772414e-05,0.0003358739777468145,1.924038315337384e-06,6.49453213554807e-05
-2.5117222321568988e-05,0.0003460522275418043,-5.072167368780356e-06,5.750123455072753e-05
-1.4580443348677363e-05,0.0003523941559251398,-2.2283278667600825e-05,5.8346213336335495e-05
-7.97746361058671e-06,0.000271398457698524,-4.5333254092838615e-05,5.907579543418251e-05
-1.009712832455989e-05,0.00013717086403630674,-6.0170175856910646e-05,4.934643948217854e-05
-1.6826177670736797e-05,7.469386673619738e-06,-6.587787356693298e-05,3.2826574170030653e-05
-2.2202601030585356e-05,-0.00013531307922676206,-6.889671203680336e-05,1.910850369313266e-05
-2.0415667677298188e-05,-0.0002167338243452832,-6.865971226943657e-05,1.2449103451217525e-05
-1.460478324588621e-05,-0.0001916244364110753,-6.493038381449878e-05,1.587877886777278e-05
-1.2732723916997202e-05,-0.000153375745867379,-6.280224624788389e-05,2.3795275410520844e-05
-1.9424318452365696e-05,-0.00011477619409561157,-5.614453766611405e-05,2.9663184250239283e-05
-2.269020478706807e-05,-7.070074207149446e-05,-4.2246269003953785e-05,3.786363231483847e-05
-1.957980202860199e-05,-6.572100392077118e-05,-3.3910378988366574e-05,4.6719178499188274e-05
-1.7980539269046858e-05,-7.443560025421903e-05,-3.1930514523992315e-05,5.225487257121131e-05
-1.4846236808807589e-05,-8.991180220618844e-05,-2.4815582946757786e-05,6.0739974287571386e-05
-1.2735815289488528e-05,-0.00013307281187735498,-9.457108717469964e-06,7.075656321831048e-05
-1.3848663911630865e-05,-0.00015852572687435895,2.3242082534125075e-06,7.067202386679128e-05
-1.2532525033748243e-05,-0.00010230096086161211,2.304702547917259e-06,6.708983710268512e-05
-1.0067803486890625e-05,1.2817444030588376e-06,4.766397765365582e-08,6.982912600506097e-05
-1.0156039024877828e-05,7.29859311832115e-05,4.135944436711725e-06,7.601589459227398e-05
-1.4982924767537042e-05,8.398444333579391e-05,9.212705663230736e-06,7.860634650569409e-05
-2.1613843273371458e-05,7.13198387529701e-05,7.591490884806262e-06,7.45869692764245e-05
-2.7889615012099966e-05,8.922825509216636e-05,3.759331320907222e-06,6.631272844970226e-05
-3.123774877167307e-05,0.00012254755711182952,1.2998535794395139e-06,6.0834932810394093e-05
-2.7882959329872392e-05,0.00012212491128593683,-2.3334769139182754e-06,6.0935253713978454e-05
-2.0504776330199093e-05,8.725672523723915e-05,-4.094998985237908e-06,6.358407699735835e-05
-1.536695344839245e-05,8.123560837702826e-05,3.6401531815499766e-06,6.81838791933842e-05
-1.507556407887023e-05,0.00011089970212196931,1.805435385904275e-05,7.551079761469737e-05
-1.692563273536507e-05,0.00013252360804472119,2.872643199225422e-05,8.625008922535926e-05
-1.9970035282312892e-05,0.00013747360208071768,3.0385954232770018e-05,9.43083650781773e-05
-2.5766323233256117e-05,0.00014283160271588713,2.495275293767918e-05,9.107674122788012e-05
-3.229665890103206e-05,0.00015109808009583503,1.9431898181210272e-05,7.912018190836534e-05
-3.5000801290152594e-05,0.0001555776980239898,1.460622934246203e-05,7.057987386360765e-05
-3.420045322855003e-05,0.00012932626123074442,6.0817455960204825e-06,6.760576070519164e-05
-3.342242416692898e-05,5.604410034720786e-05,-3.2035147796705132e-06,6.473731627920642e-05
-4.0728475141804665e-05,-5.59922591492068e-05,-7.1147328526421916e-06,5.6231616326840594e-05
-4.8628313379595056e-05,-0.00012438726844266057,-7.93594244896667e-06,4.469233317649923e-05
-4.987309148418717e-05,-0.0001363567862426862,-1.0737559023255017e-05,3.7620047805830836e-05
-4.95825479447376e-05,-0.0001763285108609125,-1.1649198313534725e-05,3.4472555853426456e-05
-4.093973620911129e-05,-0.00014013572945259511,-2.42532496486092e-06,3.78745244233869e-05
-2.3455420887330547e-05,-1.5753426851006225e-05,1.082808830688009e-05,5.353910819394514e-05
-5.859395969309844e-06,7.009896944509819e-05,1.6721674910513684e-05,7.332261156989262e-05
3.553047235982376e-06,9.08358852029778e-05,1.5794928913237527e-05,8.285530202556401e-05
8.252817451648298e-08,9.639241397962905e-06,8.930254807637539e-06,7.885675586294383e-05
-1.575452733959537e-05,-0.00018772136536426842,-3.132855454168748e-06,6.50995280011557e-05
-3.427018964430317e-05,-0.00032311619725078344,-9.685498298495077e-06,4.9619055062066764e-05
-4.3839252612087876e-05,-0.000279316765954718,-1.1002102837665007e-05,3.9521066355519e-05
-4.857034582528286e-05,-0.00011982119031017646,-2.2596781491301954e-05,3.401341746211983e-05
-5.467486698762514e-05,8.20798595668748e-05,-4.617181548383087e-05,2.82491873804247e-05
-5.941552444710396e-05,0.00022985145915299654,-7.087617996148765e-05,2.0491685063461773e-05
-5.6526339903939515e-05,0.0002666013315320015,-8.560041896998882e-05,1.4589611055271234e-05
-4.693371738540009e-05,0.0002239724708488211,-8.574272214900702e-05,1.3376651622820646e-05
-3.700804882100783e-05,0.000184220916708,-7.578131044283509e-05,1.6940743080340326e-05
-3.1055122235557064e-05,0.00015219430497381836,-6.074667180655524e-05,2.5806362828006968e-05
-2.8579559511854313e-05,8.337658800883219e-05,-4.3581741920206696e-05,3.812787326751277e-05
-2.6122746930923313e-05,-2.4847875465638936e-05,-2.4295342882396653e-05,5.3765990742249414e-05
-2.161961492674891e-05,-0.00011393162276363,-5.206938567425823e-06,6.85274280840531e-05
-1.6156047422555275e-05,-0.00014286348596215248,8.968788279162254e-06,7.515370089095086e-05
-1.3199688510212582e-05,-0.00012457330012694,1.7644297258812003e-05,7.537472265539691e-05
-1.0976602425216697e-05,-0.00011797448678407818,2.138740455848165e-05,7.815808203304186e-05
-8.938744940678589e-06,-0.00019239065295550972,2.4236163881141692e-05,8.253252599388361e-05
-9.906667401082814e-06,-0.0002980257268063724,3.043896685994696e-05,8.259555033873767e-05
-7.382645890174899e-06,-0.00029580682166852057,3.852830923278816e-05,8.211487147491425e-05
-3.644873459052178e-06,-0.00018934390391223133,4.052857548231259e-05,8.048981544561684e-05
-5.742922894569347e-06,-0.0001036838220898062,2.712229616008699e-05,7.283164450200275e-05
-1.4868517610011622e-05,-4.452283974387683e-05,6.437609044951387e-06,6.27061672275886e-05
-2.6978015739587136e-05,7.933532469905913e-05,-1.1576098586374428e-05,5.256043004919775e-05
-3.407824624446221e-05,0.00027724195388145745,-1.8749731680145487e-05,4.354579505161382e-05
-3.5740671592066064e-05,0.0003887843049596995,-2.0367777324281633e-05,4.1172683268086985e-05
-3.002815901709255e-05,0.00032973813358694315,-2.198654692620039e-05,4.5659638999495655e-05
-2.0291998225729913e-05,0.0002399655495537445,-2.2003787307767197e-05,5.549554407480173e-05
-1.4039573215995915e-05,0.0002412605390418321,-2.317885991942603e-05,6.0779879277106375e-05
-1.3186661817599088e-05,0.0003170133859384805,-2.136774673999753e-05,5.966777098365128e-05
-1.4591438230127096e-05,0.0004111408779863268,-1.7058478988474235e-05,5.972432336420752e-05
-1.9466784578980878e-05,0.0004435377777554095,-1.168773633253295e-05,6.22615625616163e-05
-2.569231583038345e-05,0.00036669810651801527,-9.964363016479183e-06,6.146779924165457e-05
-2.862699875549879e-05,0.0002275184087920934,-1.051585149980383e-05,5.6719782151049e-05
-2.642873369040899e-05,0.00013192305050324649,-9.609524568077177e-06,5.507534297066741e-05
-2.0330408005975187e-05,0.00012151016562711447,-3.3133358101622434e-06,5.6597640650579706e-05
-1.727118797134608e-05,0.00011037159856641665,5.429908924270421e-06,5.863536716788076e-05
-1.9547451302059926e-05,-2.684771789063234e-05,8.855813575792126e-06,5.8052788517670706e-05
-2.5942479624063708e-05,-0.00027672163560055196,3.2798227493913146e-06,5.2205552492523566e-05
-3.332816777401604e-05,-0.0004630241892300546,-1.0257062058371957e-05,4.185139914625324e-05
-3.633262531366199e-05,-0.0004450841515790671,-2.4271110305562615e-05,3.567689418559894e-05
-3.2841518986970186e-05,-0.0002885138092096895,-3.193720112903975e-05,3.745516005437821e-05
-2.9136717785149813e-05,-0.00014742590428795666,-3.4285647416254506e-05,4.354717384558171e-05
-2.6958599846693687e-05,-4.4580279791262e-05,-3.5748151276493445e-05,4.9203405069420114e-05
-1.9693534341058694e-05,5.397424320108257e-05,-3.2619722333038226e-05,5.31374171259813e-05
-8.77540969668189e-06,0.00010575395572232082,-2.087729808408767e-05,6.120659236330539e-05
-5.6572621360828634e-06,7.311833905987442e-05,-7.392784482362913e-06,7.152288890210912e-05
-8.558399713365361e-06,3.272121466579847e-05,-1.4592250181522104e-06,7.430152618326247e-05
-1.4900705537002068e-05,7.336401176871732e-05,-2.6733262075140374e-06,7.006715895840898e-05
-2.3435171897290275e-05,0.00014239840675145388,-5.256290023680776e-06,7.453747093677521e-05
-2.821203088387847e-05,0.00010719492274802178,-2.9879611247451976e-06,8.586281182942912e-05
-2.780415707093198e-05,-5.510931077878922e-05,5.113701718073571e-06,8.68436400196515e-05
-2.441648939566221e-05,-0.00016635395877528936,1.670769961492624e-05,8.37369734654203e-05
-2.2422847905545495e-05,-0.00013650863547809422,2.4434511942672543e-05,8.302013884531334e-05
-2.526100433897227e-05,-0.00014096051745582372,2.453918023093138e-05,8.336672181030735e-05
-2.9759925382677466e-05,-0.00024585137725807726,2.197888352384325e-05,8.403121319133788e-05
-2.3095479264156893e-05,-0.00031542754732072353,2.4166312869056128e-05,8.793827146291733e-05
-1.4246752471080981e-05,-0.0002585463225841522,2.603134635137394e-05,8.955784869613126e-05
-1.873046494438313e-05,-0.00016037700697779655,1.9695982700795867e-05,8.008872100617737e-05
-3.457211278146133e-05,-8.69930227054283e-05,6.527395726152463e-06,6.260946247493848e-05
-5.2387724281288683e-05,-1.7215499610756524e-05,-1.205635089718271e-05,4.668927431339398e-05
-6.452185334637761e-05,5.46324736205861e-05,-2.9663160603377037e-05,3.957574153901078e-05
-6.751848559360951e-05,0.00011244980851188302,-4.120671292184852e-05,3.98315823986195e-05
-6.488118378911167e-05,0.00019466660160105675,-4.9480342568131164e-05,4.2740412027342245e-05
-5.945712837274186e-05,0.00032006410765461624,-5.708701064577326e-05,4.612100019585341e-05
-4.938238998875022e-05,0.0003732018521986902,-6.06182475166861e-05,4.911121868644841e-05
-3.999936598120257e-05,0.0002555537794250995,-6.22879306320101e-05,4.8598529247101396e-05
-3.732307959580794e-05,9.415201930096373e-05,-6.735081842634827e-05,4.4893775339005515e-05
-3.7765454180771485e-05,0.0001021819916786626,-6.760605174349621e-05,4.227179670124315e-05
-3.7271111068548635e-05,0.00020444151596166193,-5.507740206667222e-05,4.3592273868853226e-05
-3.855008981190622e-05,0.00020702766778413206,-4.155040005571209e-05,4.682085636886768e-05
-3.926223507733084e-05,0.00011181518493685871,-3.721339089679532e-05,4.661337152356282e-05
-3.772623313125223e-05,1.970803896256257e-05,-3.2825548260007054e-05,4.0805542084854096e-05
-2.9696437195525505e-05,-1.972261816263199e-05,-2.5432360416743904e-05,3.94555609091185e-05
-2.037447120528668e-05,-2.1411542547866702e-05,-1.5592982890666462e-05,4.349586379248649e-05
-1.4764472325623501e-05,-6.070860081308638e-07,-2.2603708202950656e-06,4.782416363013908e-05
-1.1610573892539833e-05,7.938198541523889e-05,9.954736924555618e-06,5.203858017921448e-05
-1.0608600859995931e-05,0.00017889308219309896,2.1480398572748527e-05,5.734117439715192e-05
-9.24554933590116e-06,0.00023370535927824676,2.9353892387007363e-05,6.4952859247569e-05
-1.276357397728134e-05,0.00022973294835537672,3.12294541799929e-05,7.057854963932186e-05
-1.6564315956202336e-05,0.00018296204507350922,2.9952772820251994e-05,6.776981899747625e-05
-1.3272769137984142e-05,0.00013716216199100018,3.150156408082694e-05,6.598645995836705e-05
-5.964740466879448e-06,5.2725878049386665e-05,3.748324161279015e-05,7.05995989846997e-05
-4.04638922191225e-06,-0.000155438159708865,4.013213765574619e-05,7.86675518611446e-05
-7.519463451899355e-06,-0.00033758493373170495,3.5207351174904034e-05,8.272386185126379e-05
-1.0540530638536438e-05,-0.0002856829669326544,2.8843351174145937e-05,7.673611253267154e-05
-1.0381301763118245e-05,-8.286238880828023e-05,2.5848976292763837e-05,6.924960325704888e-05
-7.476896371372277e-06,9.474487160332501e-05,2.4187236704165116e-05,7.007399835856631e-05
-3.5688638035935583e-06,0.000177508030901663,2.18488657992566e-05,8.008703298401088e-05
-3.5953153201262467e-06,0.00015038183482829481,1.916519431688357e-05,8.684493514010683e-05
-9.39837445912417e-06,1.860845623014029e-05,1.4522446690534707e-05,8.191691449610516e-05
-1.5419112969539128e-05,-0.00012852356303483248,4.799968337465543e-06,6.971610127948225e-05
-1.5505904229939915e-05,-0.00020500259415712208,-1.0510150332265766e-06,6.37361517874524e-05
-7.432874554069713e-06,-0.0001754011755110696,9.984298230847344e-06,7.062326767481863e-05
-5.885769951419206e-07,-3.3429543691454455e-05,2.8648928491747938e-05,7.783721957821399e-05
-5.932270596531453e-06,0.00010079320782097057,3.185590685461648e-05,7.07302606315352e-05
-1.8475269826012664e-05,0.00017693675181362778,1.7968824977288023e-05,5.607109778793529e-05
-2.9238035494927317e-05,0.000236509382375516,-6.373634278133977e-06,4.070555587531999e-05
-4.139418888371438e-05,0.00015680045180488378,-3.570320404833183e-05,2.4431763449683785e-05
-5.408436481957324e-05,-8.396906923735514e-05,-6.971303082536906e-05,9.158587999991141e-06
-6.062730244593695e-05,-0.00023396784672513604,-0.00010809886589413509,-2.3429304292221786e-06
-5.838708602823317e-05,-8.39989006635733e-05,-0.000139288924401626,-1.1087545317423064e-05
-5.608201536233537e-05,0.00016120275540743023,-0.0001510974980192259,-1.4037070286576636e-05
-5.439070810098201e-05,0.0001458308834116906,-0.00013522490917239338,-7.726794137852266e-06
-4.79757618450094e-05,-2.3346870875684544e-05,-0.00010516165639273822,7.181214641605038e-06
-3.8439513446064666e-05,-9.362094715470448e-05,-7.466891111107543e-05,2.7878217224497348e-05
-2.9764814826194197e-05,-5.54432062926935e-06,-4.82430805277545e-05,4.243543662596494e-05
-2.4498329366906546e-05,0.00017776081222109497,-2.9328311939025298e-05,4.592357436195016e-05
-2.143317396985367e-05,0.00032316709985025227,-1.469347898819251e-05,4.988440196029842e-05
-1.6089508790173568e-05,0.00032106254366226494,3.653188969110488e-06,5.911197149544023e-05
-1.1285799700999632e-05,0.00012609167606569827,1.8924978576251306e-05,6.299663800746202e-05
-1.0899148946919013e-05,-0.00010759263386717066,2.536670035624411e-05,6.319887324934825e-05
-1.13982814582414e-05,-0.00029611107311211526,2.9246668418636546e-05,6.806870806030929e-05
-1.007347964332439e-05,-0.00045642859186045825,2.7841573682962917e-05,7.603277481393889e-05
-4.518723926594248e-06,-0.0005054803332313895,2.5276889573433436e-05,8.135604730341583e-05
1.612682694940304e-06,-0.00039363474934361875,2.445242898829747e-05,8.201334276236594e-05
-3.0754898716622847e-07,-0.00018220960919279605,2.163882163586095e-05,7.567482680315152e-05
-1.1516557606228162e-05,5.6121923989849165e-05,1.4230769011192024e-05,6.424236198654398e-05
-2.581251465016976e-05,0.00024583074264228344,6.87319561620825e-06,5.6123713875422254e-05
-3.848440246656537e-05,0.00032286325586028397,7.815968956492725e-07,5.3625339205609635e-05
-4.377597360871732e-05,0.00034796350519172847,-6.994944669713732e-06,5.685740688932128e-05
-3.97622243326623e-05,0.00035123960697092116,-1.5601663108100183e-05,6.539667083416134e-05
-3.342280979268253e-05,0.0002202807372668758,-1.90647660929244e-05,7.114120671758428e-05
-3.140030457871035e-05,-2.7893209335161373e-05,-1.1243064363952726e-05,7.215069490484893e-05
-3.2919437217060477e-05,-0.00011169427307322621,5.7126876527036075e-06,7.649425242561847e-05
-3.213278978364542e-05,6.389531336026266e-05,1.68208953255089e-05,8.109903137665242e-05
-2.4834927899064496e-05,0.00024357774236705154,1.53392775246175e-05,8.307660755235702e-05
-1.8296790585736744e-05,0.00021637516329064965,1.1455667845439166e-05,8.617246930953115e-05
-1.7047706933226436e-05,0.00010473699512658641,4.510878625296755e-06,8.854545740177855e-05
-1.832996349548921e-05,0.00017141210264526308,-8.771025932219345e-06,8.438452641712502e-05
-2.2172755052451976e-05,0.00031616215710528195,-2.0856950868619606e-05,7.517386984545738e-05
-2.1625219233101234e-05,0.00028615002520382404,-2.433536428725347e-05,7.076920155668631e-05
-1.696179788268637e-05,0.00013130033039487898,-2.2922418793314137e-05,7.436717714881524e-05
-2.186521487601567e-05,3.457615457591601e-05,-2.3327114831772633e-05,7.645125879207626e-05
-3.7296766095096245e-05,1.4725087567057926e-05,-3.0850125767756253e-05,7.075515895849094e-05
-5.318820694810711e-05,-9.876875265035778e-05,-4.1906336264219135e-05,6.204767851158977e-05
-5.979114575893618e-05,-0.00023874697217252105,-4.4134580093668774e-05,5.574473470915109e-05
-5.545622843783349e-05,-0.0002129553322447464,-3.2286396162817255e-05,5.82656248298008e-05
-4.367042492958717e-05,-6.795187073294073e-05,-1.7569582269061357e-05,6.598811160074547e-05
-3.446379560045898e-05,4.542766328086145e-05,-8.91397849045461e-06,7.245795131893829e-05
-3.091980397584848e-05,7.685452874284238e-05,-4.449501375347609e-06,7.561311213066801e-05
-3.1072770070750266e-05,3.825236490229145e-05,-1.5688880239395075e-06,7.248660404002294e-05
-3.3543161407578737e-05,-3.4945936931762844e-05,-3.151526243527769e-06,6.522455078084022e-05
-3.420846405788325e-05,-8.990024798549712e-05,-9.038500138558447e-06,6.125561048975214e-05
-3.2979231036733836e-05,-0.00010308370110578835,-1.0948918315989431e-05,6.29466594546102e-05
-2.93327248073183e-05,-8.2621059846133e-05,-5.959255304333055e-06,6.571784615516663e-05
-2.4036164177232422e-05,-4.547590287984349e-05,-5.012130941395299e-07,6.6625107137952e-05
-1.8720247680903412e-05,1.2687768503383268e-05,-1.7247668893105583e-06,6.597526225959882e-05
-1.6011954357963987e-05,6.682626553811133e-05,-6.8904832914995495e-06,6.279405351961032e-05
-1.4727272173331585e-05,6.259258952923119e-05,-1.1400458788557444e-05,5.724984293919988e-05
-1.6583364413236268e-05,-1.7168098565889522e-05,-1.2334906386968214e-05,5.437697109300643e-05
-2.249588033009786e-05,-9.859720739768818e-05,-5.6643552852619905e-06,5.8123616327065974e-05
-2.684649734874256e-05,-0.00010781972378026694,9.493276593275368e-06,6.326155562419444e-05
-2.4926330297603272e-05,-5.42604029760696e-05,2.6523064661887474e-05,6.23927335254848e-05
-1.9919270926038735e-05,-2.1912956071901135e-05,4.161407196079381e-05,5.754394442192279e-05
-1.9714550944627263e-05,-6.137965101515874e-06,4.942619489156641e-05,5.604453690466471e-05
-1.7915104763233103e-05,5.777394108008593e-05,5.21615547768306e-05,6.099646998336539e-05
-8.161528057826217e-06,0.000129621839732863,5.315463204169646e-05,6.844804011052474e-05
-4.867572897637729e-06,8.614829857833683e-05,4.276699837646447e-05,7.246205495903268e-05
-1.2225574209878687e-05,-7.0909618443693034e-06,2.8951290005352348e-05,7.413001003442332e-05
-1.6148607755894773e-05,1.5378890338979545e-06,2.577713348728139e-05,7.911947614047676e-05
-1.2292625797272194e-05,0.0001205857697641477,3.054172339034267e-05,8.414698822889477e-05
-7.384132459264947e-06,0.00024783003027550876,2.6644185709301382e-05,8.672741387272254e-05
-3.9954352359927725e-06,0.00026914209593087435,8.540447197447065e-06,8.302615606226027e-05
-5.0186981752631254e-06,0.0002093715884257108,-8.720654477656353e-06,7.518375787185505e-05
-9.392283573106397e-06,0.00014832241868134588,-1.7451737221563235e-05,6.536784349009395e-05
-1.9799037545453757e-05,9.248260903405026e-05,-3.0422083000303246e-05,5.1282189815538004e-05
-3.5994016798213124e-05,2.9204720704001375e-05,-5.118013723404147e-05,3.751311669475399e-05
-4.7836809244472533e-05,-1.730164876789786e-05,-6.806159217376262e-05,3.169553019688465e-05
-4.9619065976003185e-05,-7.334102701861411e-05,-7.302766607608646e-05,3.4427826903993264e-05
-4.426773011800833e-05,-0.00015888943744357675,-6.609438423765823e-05,3.8259546272456646e-05
-3.8564077840419486e-05,-0.00020995103113818914,-5.4176671255845577e-05,3.8761321775382385e-05
-3.6589521187124774e-05,-0.00017432941240258515,-4.383251871331595e-05,4.0665792766958475e-05
-3.874722824548371e-05,-0.00010092190495925024,-3.7111782148713246e-05,4.832021295442246e-05
-3.975717845605686e-05,-4.960364822181873e-05,-3.3619067835388705e-05,5.690159377991222e-05
-3.706557254190557e-05,-2.1985471903462894e-05,-3.321309486636892e-05,6.177141767693684e-05
-3.416973413550295e-05,-1.2733952644339297e-05,-3.3190022804774344e-05,6.140108598629013e-05
-3.6060231650481e-05,-2.468743514327798e-05,-2.9229791834950447e-05,5.8716541389003396e-05
-3.743459456018172e-05,-4.6712033508811146e-05,-1.8787301087286323e-05,5.7109260524157435e-05
-3.461694359430112e-05,-8.548756886739284e-05,-1.2228234481881373e-05,5.575256727752276e-05
-3.229767025914043e-05,-0.0001071918013622053,-1.2778413292835467e-05,5.1645525672938675e-05
-3.0411951229325496e-05,-4.137653741054237e-05,-1.1160972462676e-05,4.5602148020407185e-05
-2.848616350092925e-05,8.884810085874051e-05,-7.264895430125762e-06,4.1025028622243553e-05
-2.3976806915015914e-05,0.00016898887406568974,3.471807531241211e-06,4.405032450449653e-05
-2.082077116938308e-05,0.0001346500066574663,2.294803925906308e-05,5.068785321782343e-05
-1.8829019609256648e-05,7.071954314596951e-05,3.750662654056214e-05,5.9662699641194195e-05
-1.1052206900785677e-05,3.5715616832021624e-05,4.2289950215490535e-05,7.240442937472835e-05
-7.037626346573234e-06,1.434886780771194e-05,3.7671976315323263e-05,8.598418207839131e-05
-6.801389645261224e-06,-2.890685573220253e-05,2.6522546249907464e-05,9.302437683800235e-05
-1.0464827937539667e-05,-0.00011442964023444802,1.0603887858451344e-05,8.424698899034411e-05
-2.3004875401966274e-05,-0.00016149174189195037,-1.015988800645573e-05,6.583760841749609e-05
-3.657570414361544e-05,-0.00010320814908482134,-2.849166776286438e-05,4.8477082600584254e-05
-3.9857372030382976e-05,8.785462341620587e-06,-3.5960227251052856e-05,3.972972262999974e-05
-3.613002991187386e-05,7.170213211793453e-05,-3.428737181820907e-05,4.031683783978224e-05
-3.0288285415736027e-05,7.019039912847802e-05,-2.850036798918154e-05,4.594442725647241e-05
-2.2812037059338763e-05,6.323436537059024e-05,-1.9907332898583263e-05,5.177934144739993e-05
-1.6539030184503645e-05,8.009355224203318e-05,-1.3841034160577692e-05,5.6453700381098315e-05
-1.6325431715813465e-05,0.00011326410458423197,-1.2313910701777786e-05,6.0312693676678464e-05
-1.9885546862496994e-05,0.0001512334420112893,-1.3679840776603669e-05,6.321728869806975e-05
-2.109151319018565e-05,0.00019372238602954894,-1.4669750271423254e-05,6.519513408420607e-05
-2.0790326743735932e-05,0.00023876457998994738,-1.3889263755118009e-05,6.591585406567901e-05
-2.0847661289735697e-05,0.00024366720754187554,-1.4194753021001816e-05,6.671704613836482e-05
-2.433795089018531e-05,0.00013986098929308355,-1.8805456420523115e-05,6.611315620830283e-05
-2.792729537759442e-05,-2.4605076760053635e-05,-2.5226452635251917e-05,6.376786041073501e-05
-3.0389795938390307e-05,-8.442110993200913e-05,-2.880498141166754e-05,6.343021232169122e-05
-3.38526806444861e-05,-3.7009608604421373e-06,-2.747798862401396e-05,6.378439866239205e-05
-3.964588904636912e-05,9.90005792118609e-05,-2.5736209863680415e-05,5.7262626796728e-05
-3.917081266990863e-05,0.00014154420932754874,-2.482620402588509e-05,5.013541522203013e-05
-3.240412843297236e-05,0.00012057139247190207,-2.055275035672821e-05,5.353982487577014e-05
-2.551235957071185e-05,9.052857058122754e-05,-1.4802114492340479e-05,6.322061381069943e-05
-2.2847418222227134e-05,0.00013250908523332328,-2.3467550818168093e-06,7.234331133076921e-05
-2.7840407710755244e-05,0.00017520308028906584,2.0652914827223867e-05,7.825803913874552e-05
-3.266252679168247e-05,0.00016426869842689484,3.4874134144047275e-05,7.999518129508942e-05
-3.1575957109453157e-05,0.00019890841213054955,3.078932058997452e-05,7.79594192863442e-05
-2.6410823920741677e-05,0.0002687124942895025,2.2734562662662938e-05,7.500062201870605e-05
-1.8406057279207744e-05,0.0002550613135099411,2.2152240489958785e-05,7.798046135576442e-05
-6.801782092225039e-06,2.7633339414023794e-05,2.3094706193660386e-05,8.671333489473909e-05
2.49045433520223e-06,-0.00034821638837456703,1.8559847376309335e-05,8.83655811776407e-05
-3.435136477492051e-07,-0.0006991148693487048,7.812912372173741e-06,7.649118197150528e-05
-2.438332921883557e-05,-0.0008519208058714867,-7.706612450419925e-06,5.358248017728329e-05
-5.402960232459009e-05,-0.0007025444647297263,-2.291129385412205e-05,3.172895958414301e-05
-6.336940714390948e-05,-0.00036548389471136034,-3.214674143237062e-05,2.1534162442549132e-05
-5.472519114846364e-05,1.303010867559351e-05,-3.3140873711090535e-05,2.447322003718e-05
-4.28144121542573e-05,0.00034748698817566037,-3.622801159508526e-05,3.384961746633053e-05
-3.542925696820021e-05,0.0005810668226331472,-4.5340973883867264e-05,4.324873589212075e-05
-3.0508484996971674e-05,0.0006672599702142179,-5.227395740803331e-05,5.271050031296909e-05
-2.6402482035337016e-05,0.00059977185446769,-5.082553252577782e-05,6.151411798782647e-05
-2.6286694264854304e-05,0.0003743159177247435,-4.721331060864031e-05,6.547370867338032e-05
-3.2267944334307685e-05,2.0809529814869165e-05,-4.438529867911711e-05,6.326424772851169e-05
-3.769332033698447e-05,-0.00032223048037849367,-3.504243431962095e-05,6.001561268931255e-05
-3.535139330779202e-05,-0.0005145654431544244,-1.3254131772555411e-05,5.775178942712955e-05
-2.7972466341452673e-05,-0.0005200169398449361,1.1936848750337958e-05,5.919199975323863e-05
-2.3318427338381298e-05,-0.00036201291368342936,2.3747461455059238e-05,6.42260056338273e-05
-2.0849203792749904e-05,-0.0001387792726745829,2.09060417546425e-05,7.100310904206708e-05
-1.3364292499318253e-05,1.4153751180856489e-05,1.4268630366132129e-05,8.003188850125298e-05
-4.522205927059986e-06,0.00010894984006881714,4.6178256525308825e-06,8.827875717543066e-05
-1.1001254733855603e-06,0.00019459740724414587,-8.015807907213457e-06,8.9853405370377e-05
-7.552721115189343e-08,0.00018803811690304428,-2.1109455701662228e-05,8.25545284897089e-05
-3.2448715501232073e-06,0.00011969558545388281,-3.63810031558387e-05,7.078784983605146e-05
-1.6516083633177914e-05,6.782823038520291e-05,-5.251923357718624e-05,5.207889626035467e-05
-3.095937427133322e-05,0.00011396440822863951,-6.572282291017473e-05,3.0903524020686746e-05
-3.802557330345735e-05,0.0002826376003213227,-7.498468767153099e-05,1.9360353689990006e-05
-3.943924093618989e-05,0.0004009638214483857,-8.056010847212747e-05,1.5358502423623577e-05
-3.3791355235734954e-05,0.0003748940071091056,-6.809626938775182e-05,2.0606805264833383e-05
-2.7401838451623917e-05,0.00020899379160255194,-4.413021088112146e-05,3.165177986375056e-05
-2.672811569937039e-05,2.7627445888356306e-05,-2.7973976102657616e-05,4.129584340262227e-05
-3.292583642178215e-05,-2.395182309555821e-05,-2.5133324015769176e-05,4.48022001364734e-05
-4.086672925041057e-05,1.887386679300107e-05,-2.7007103199139237e-05,4.670973066822626e-05
-4.094180985703133e-05,3.102226401097141e-05,-2.6125886506633833e-05,5.564810999203473e-05
-3.533916242304258e-05,-2.8296866730670445e-05,-2.1959029254503548e-05,7.126015407266095e-05
-2.6221105144941248e-05,-9.904973558150232e-05,-1.6556652553845197e-05,8.541729039279744e-05
-1.7096452211262658e-05,-0.00010196941730100662,-1.0894072147493716e-05,9.1420384705998e-05
-1.2176086784165818e-05,-1.5473662642762065e-05,-5.2664349823317025e-06,9.252424933947623e-05
-1.1517487109813374e-05,0.00011080053081968799,-2.60998405110513e-07,9.093065455090255e-05
-1.1638485375442542e-05,0.00021564398775808513,7.757968887744937e-06,8.59668871271424e-05
-1.236143089045072e-05,0.0002709805849008262,2.0132009012741037e-05,8.148672350216657e-05
-1.0458114957145881e-05,0.00028389872750267386,3.458443461568095e-05,8.333784353453666e-05
-5.757111011917004e-06,0.00025173797621391714,4.291093864594586e-05,8.558719855500385e-05
-6.29024907539133e-06,0.00012027843331452459,3.657283014035784e-05,8.049178723013029e-05
-2.0066703655174933e-05,-0.00014628680946771055,1.7294847566518e-05,6.356013909680769e-05
-4.129455555812456e-05,-0.0004429568361956626,4.222463758196682e-06,4.4371172407409176e-05
-5.103516377857886e-05,-0.0005628915969282389,7.209080195025308e-06,4.1612536733737215e-05
-4.750682637677528e-05,-0.000405976694310084,1.608017373655457e-05,5.121160575072281e-05
-3.938005829695612e-05,-8.544473530491814e-05,1.8011911379289813e-05,5.835385309183039e-05
-3.4795015380950645e-05,0.00016912270803004503,1.3299139027367346e-05,5.56346531084273e-05
-3.223634121241048e-05,0.00020331361156422645,6.765756552340463e-06,4.620563049684279e-05
-2.6860654543270357e-05,0.0001217098833876662,1.684927383394097e-06,4.144541890127584e-05
-2.547955773479771e-05,4.121323399886023e-06,-1.7489574020146392e-06,4.0102811908582225e-05
-2.5873561753542162e-05,-7.97989996499382e-05,-6.895238129800418e-06,4.040780186187476e-05
-2.3426671759807505e-05,-6.92687535774894e-05,-9.238245183951221e-06,4.024137160740793e-05
-1.78611880983226e-05,-3.5720368032343686e-05,-3.2178718356590252e-06,4.1154969949275255e-05
-1.1225849448237568e-05,-1.2550012797873933e-05,1.3480884035743657e-06,4.5399014197755605e-05
-6.946087523829192e-06,-3.269448643550277e-05,-4.987178726878483e-06,4.927648842567578e-05
-4.484350938582793e-06,-2.8370846848702058e-05,-1.686009272816591e-05,5.004304330213927e-05
-4.0577460822532885e-06,5.5376687669195235e-05,-2.19299690797925e-05,4.7392000851687044e-05
-6.750428838131484e-06,0.00017751836276147515,-2.035935722233262e-05,4.654782242141664e-05
-1.3280453458719421e-05,0.0002523017465136945,-1.8550716049503535e-05,4.968204666511156e-05
-1.8357113731326535e-05,0.00025766517501324415,-1.2076389793946873e-05,5.3495670726988465e-05
-1.860893280536402e-05,0.00020658786525018513,2.2965919015405234e-06,5.267688902677037e-05
-1.7782795111997984e-05,8.25247770990245e-05,1.4331425518321339e-05,5.2627096010837704e-05
-1.8273905880050734e-05,-8.023275586310774e-05,1.4137010111880954e-05,5.793200762127526e-05
-2.0026511265314184e-05,-0.00017182616284117103,8.670735951454844e-06,6.187643157318234e-05
-2.246160693175625e-05,-0.0001439638144802302,9.510219570074696e-06,6.205371755640954e-05
-2.1955363990855403e-05,-9.861755825113505e-05,1.7845914044301026e-05,6.388765177689493e-05
-1.808948400139343e-05,-0.00011470595200080425,2.4885857783374377e-05,6.540569302160293e-05
-2.148104067600798e-05,-0.00012782515841536224,2.641210812726058e-05,6.323850539047271e-05
-3.77479191229213e-05,-5.581090590567328e-05,2.2026551960152574e-05,5.7651661336421967e-05
-5.066715311841108e-05,1.0531572115723975e-05,1.2405325833242387e-05,4.961618105880916e-05
-4.864344373345375e-05,-4.8906429583439603e-05,-1.5261989574355539e-06,4.498000998864882e-05
-3.9449903852073476e-05,-0.00014335675223264843,-1.114923543354962e-05,4.738497227663174e-05
-3.632289735833183e-05,-9.81167031568475e-05,-6.654840490227798e-06,4.9473659601062536e-05
-4.39957257185597e-05,0.0001036087196553126,-2.8871086215076502e-06,4.349696246208623e-05
-4.582239853334613e-05,0.0003070801612921059,-1.2324799172347412e-05,3.830890273093246e-05
-3.657013439806178e-05,0.00040188906132243574,-2.4176539227482863e-05,4.1578878153814e-05
-3.074623236898333e-05,0.0003901766031049192,-2.9698228900087997e-05,4.466182872420177e-05
-2.485008371877484e-05,0.0002931700146291405,-3.041653872060124e-05,4.789033846464008e-05
-1.7562599168741144e-05,0.00022230132890399545,-3.411648503970355e-05,5.24164097441826e-05
-1.7414540707250126e-05,0.00016987313574645668,-4.037342660012655e-05,5.606718696071766e-05
-2.0239474906702526e-05,0.00012729846639558673,-3.883217868860811e-05,6.126617518020794e-05
-1.9697998141054995e-05,0.00014413152530323714,-2.6062129109050147e-05,6.664451939286664e-05
-1.7606389519642107e-05,0.00020874520123470575,-1.3686131751455832e-05,7.07052749930881e-05
-1.8538967196946032e-05,0.0001700954744592309,-1.2429885828169063e-05,6.927443610038608e-05
-2.675082942005247e-05,-4.273625017958693e-05,-2.0173247321508825e-05,6.160993507364765e-05
-3.900134834111668e-05,-0.00024966176715679467,-2.9368027753662318e-05,5.201543899602257e-05
-4.627973248716444e-05,-0.0003110857796855271,-3.330339677631855e-05,4.6462566388072446e-05
-4.308936695451848e-05,-0.00025221126270480454,-2.8437576474971138e-05,4.5728851546300575e-05
-3.599638876039535e-05,-0.00015843652363400906,-1.9817904103547335e-05,4.733262176159769e-05
-3.309293606434949e-05,-8.863624680088833e-05,-1.4602585906686727e-05,4.9777190724853426e-05
-3.474727418506518e-05,-7.311075751204044e-05,-1.3730689715885092e-05,5.195923586143181e-05
-3.661317896330729e-05,-6.88492800691165e-05,-1.4025911696080584e-05,5.2939132729079574e-05
-3.454108809819445e-05,-4.304565300117247e-05,-1.1567530236789025e-05,5.206645073485561e-05
-3.001830009452533e-05,-1.2350538781902287e-05,-5.421065907285083e-06,5.2365994633873925e-05
-2.8390015359036624e-05,-1.5477493434445933e-05,1.5862873681271594e-07,5.588340718531981e-05
-3.135396764264442e-05,-3.394271698198281e-05,-1.3509152267943136e-06,6.071995812817477e-05
-3.302417462691665e-05,-4.448315667104907e-05,-6.6338789110886864e-06,6.418144039344043e-05
-3.1753224902786314e-05,-4.70064660476055e-05,-6.1939945226185955e-06,6.528813537443057e-05
-2.846421193680726e-05,-5.0431975978426635e-05,-1.0839049764399533e-06,6.409490742953494e-05
-2.4231290808529593e-05,-3.657648267108016e-05,-1.2577460211105063e-06,6.1024253227515146e-05
-2.00489375856705e-05,7.33925253371126e-06,-3.180137127856142e-06,5.9384838095866144e-05
-1.6559302821406163e-05,6.34386160527356e-05,-1.7873737760965014e-06,6.442736776079983e-05
-1.400910423399182e-05,0.00011052135232603177,1.8283462850376964e-06,6.823855073889717e-05
-1.832090856623836e-05,0.00014593279047403485,3.3390422231605044e-06,6.328773451969028e-05
-2.578050953161437e-05,0.0001450622221454978,-9.421234494766395e-07,5.759747728006914e-05
-3.0582494218833745e-05,9.841431165114045e-05,-4.302143679524306e-06,5.13135819346644e-05
-3.079439920838922e-05,3.075778658967465e-05,-5.537472134165e-06,4.6510838728863746e-05
-2.550905992393382e-05,-1.879003866633866e-05,-5.288949523674091e-06,4.893814184470102e-05
-2.140618016710505e-05,-8.518410140823107e-06,-1.345085024695436e-06,5.713977225241251e-05
-2.0254972696420737e-05,3.11888252326753e-05,3.510525402816711e-06,6.446093902923167e-05
-2.0908773876726627e-05,3.363833820912987e-05,3.5637110613606637e-06,6.476658745668828e-05
-2.2135336621431634e-05,1.99845562747214e-05,-4.265785094048624e-07,6.037721686880104e-05
-2.6083149350597523e-05,3.832217407762073e-05,-3.357916966706398e-06,5.49329342902638e-05
-3.083438059547916e-05,5.645448618452065e-05,-3.0976605103205657e-06,5.3605388529831544e-05
-3.135752194793895e-05,2.8654114430537447e-05,-2.0693173610197846e-06,5.790272916783579e-05
-2.6481824534130283e-05,-3.155090962536633e-05,-1.447815407118469e-06,6.459123687818646e-05
-2.216642133134883e-05,-8.137679833453149e-05,-7.597407716275484e-07,6.858607957838103e-05
-2.3971453629201278e-05,-0.00010586508142296225,-6.079152825577694e-08,6.869876233395189e-05
-2.7486854378366843e-05,-0.00010405954526504502,7.666791361771175e-07,6.938043225090951e-05
-2.728553590714e-05,-0.00010781915625557303,1.5776217878737953e-06,7.138209184631705e-05
-2.4144565031747334e-05,-0.00014835502952337265,4.495924258662853e-06,7.259455014718696e-05
-1.9623619664344005e-05,-0.00020609663624782115,1.001236159936525e-05,7.495071622543037e-05
-1.598863491381053e-05,-0.00023165995662566274,1.602096926944796e-05,7.966755219968036e-05
-1.6126714399433695e-05,-0.00017067883163690567,2.0206709450576454e-05,8.567144686821848e-05
-1.4993186596257146e-05,-4.5508604671340436e-06,2.83042827504687e-05,8.90284645720385e-05
-1.1399423783586826e-05,0.00014346004172693938,3.802745050052181e-05,8.665623317938298e-05
-1.2049247743561864e-05,0.00018410378834232688,3.723393820109777e-05,7.846284279366955e-05
-1.8479682694305666e-05,0.0003138283209409565,1.7664448023424484e-05,6.470570951933041e-05
-2.3009240976534784e-05,0.0006358740502037108,-1.747405985952355e-05,4.9106598453363404e-05
-2.740333366091363e-05,0.0008245285134762526,-5.022062759962864e-05,3.392021972103976e-05
-3.3177424484165385e-05,0.0006701432284899056,-7.117490167729557e-05,2.5605693735997193e-05
-3.4674154449021444e-05,0.0003782837884500623,-7.103401731001213e-05,2.908410351665225e-05
-3.332032429170795e-05,0.00022033964341972023,-4.999785960535519e-05,3.8913003663765267e-05
-2.811865670082625e-05,0.00013076886534690857,-3.2932086469372734e-05,4.825252472073771e-05
-2.2750140487914905e-05,-6.388690962921828e-05,-3.3617270673858e-05,5.403280010796152e-05
-2.149837018805556e-05,-0.00026269827503710985,-4.132478716201149e-05,5.707149830413982e-05
-2.4949687940534204e-05,-0.00030438663088716567,-4.1663686715764925e-05,5.561822035815567e-05
-3.1301697163144127e-05,-0.000223948823986575,-3.674934487207793e-05,5.031373439123854e-05
-3.3271731808781624e-05,-0.00015412704669870436,-3.200214632670395e-05,4.65998709842097e-05
-2.320292878721375e-05,-0.00012445768516045064,-2.4412165657849982e-05,5.031518230680376e-05
-9.429669262317475e-06,-0.00014254199049901217,-1.6373394828406163e-05,5.999495624564588e-05
-7.557342996733496e-06,-0.00021288641437422484,-1.6829009837238118e-05,6.451897934312001e-05
-1.6175701603060588e-05,-0.00024872884387150407,-2.127217703673523e-05,6.079963714000769e-05
-2.531042628106661e-05,-0.0001617733360035345,-1.9806700947810896e-05,5.8079709560843185e-05
-3.0343077014549635e-05,-1.3890612535760738e-05,-1.719678948575165e-05,5.830037116538733e-05
-3.3253149013035e-05,6.644586392212659e-05,-2.4661603674758226e-05,5.518293983186595e-05
-4.12006484111771e-05,6.583632784895599e-05,-4.230360718793236e-05,4.871412966167554e-05
-5.266530570224859e-05,7.960326183820143e-05,-5.946479723206721e-05,4.629070099326782e-05
-5.248665911494754e-05,0.00013461588241625577,-6.634616147493944e-05,5.195926860324107e-05
-3.895859117619693e-05,0.00015490500663872808,-6.089701855671592e-05,6.229161226656288e-05
-2.7825191864394583e-05,0.00014499598182737827,-4.9789839977165684e-05,7.042325160000473e-05
-2.9226886908872984e-05,0.000169719714904204,-3.5938301152782515e-05,7.580879173474386e-05
-3.1442552426597103e-05,0.00022605765843763947,-1.9525434254319407e-05,8.326507668243721e-05
-2.2918569811736234e-05,0.00025195302441716194,-7.568155524495523e-06,8.6677580839023e-05
-1.4283722521213349e-05,0.00013888899411540478,-1.1553362355698482e-06,8.10937344795093e-05
-1.5871846699155867e-05,2.3045955458655953e-05,1.6781319800429628e-06,7.287001062650234e-05
-1.605928446224425e-05,6.823621515650302e-05,1.1430044651206117e-05,6.73516551614739e-05
-1.2695855730271433e-05,0.0001707507180981338,3.1014267733553424e-05,6.436091643990949e-05
-1.765333036019001e-05,0.00019759483984671533,3.731158722075634e-05,6.342598499031737e-05
-2.34872532018926e-05,0.00016031488485168666,2.442073673591949e-05,6.464287434937432e-05
-1.7746880985214375e-05,0.0001639529800741002,8.945162335294299e-06,7.196210935944691e-05
-1.0445080988574773e-05,7.568066212115809e-05,-2.3433910882886266e-06,7.717502012383193e-05
-1.8561777324066497e-05,-0.00018730739247985184,-1.675064595474396e-05,6.860229041194543e-05
-3.8792881241533905e-05,-0.000440221163444221,-3.1583778763888404e-05,4.8122827138286084e-05
-5.846239218953997e-05,-0.00051773531595245,-4.159629679634236e-05,3.080752867390402e-05
-6.41869191895239e-05,-0.00044401042396202683,-3.8706719351466745e-05,3.222953455406241e-05
-5.558650809689425e-05,-0.0003538633754942566,-2.393810063949786e-05,4.66832316305954e-05
-4.218774120090529e-05,-0.0002980619319714606,-6.4896189542196225e-06,5.865919592906721e-05
-2.7579306333791465e-05,-0.00021495918917935342,9.89847831078805e-06,6.176239548949525e-05
-1.6508129192516208e-05,-9.201281500281766e-05,2.1884763555135578e-05,6.268148717936128e-05
-1.4239878510124981e-05,2.254460923722945e-05,2.622263491502963e-05,6.941035098861903e-05
-1.7526475858176127e-05,0.00011267559602856636,1.9404746126383543e-05,7.753995305392891e-05
-1.8545561033533886e-05,0.000169317630934529,7.45235638532904e-06,8.081301348283887e-05
-1.798790617613122e-05,0.00016856582078617066,-2.469730304710538e-07,7.945583638502285e-05
-1.676103420322761e-05,0.00010645224392646924,-4.3567388274823315e-06,7.354189438046888e-05
-9.901919838739559e-06,4.9687489081406966e-05,-1.094632716558408e-05,6.725442653987557e-05
-2.1225303044047905e-06,3.6014655051985756e-05,-1.608698039490264e-05,6.47666965960525e-05
-3.3622868613747414e-06,4.177478331257589e-05,-1.5081379387993366e-05,6.44297178951092e-05
-1.0479282536834944e-05,4.9281323299510404e-05,-7.609708063682774e-06,6.203239172464237e-05
-1.4009023288963363e-05,4.4622003770200536e-05,2.4307369130838197e-06,6.1009632190689445e-05
-1.5432548025273718e-05,2.537458613005583e-06,1.0073144949274138e-05,5.866964420420118e-05
-2.1518973881029524e-05,-3.9791713788872585e-05,9.547107765683904e-06,5.355808752938174e-05
-3.0170516765792854e-05,-9.421199138159864e-06,5.3329749789554626e-06,5.1000359235331416e-05
-3.762079359148629e-05,6.527657387778163e-05,-6.52043013360526e-07,5.239538586465642e-05
-4.247969627613202e-05,0.00010058595944428816,-6.734276666975347e-06,5.544655869016424e-05
-4.2991105146938935e-05,7.94994120951742e-05,-5.149991920916364e-06,5.3478070185519755e-05
-3.541923433658667e-05,7.057444599922746e-05,3.817998276645085e-06,5.107754986966029e-05
-2.0816618416574784e-05,0.0001222358550876379,1.796068318071775e-05,5.3421303164213896e-05
-8.404714208154473e-06,0.0001550905144540593,3.038265094801318e-05,5.4283285862766206e-05
-4.9312620831187814e-06,0.00015458046982530504,3.3475553209427744e-05,4.885103044216521e-05
-9.53350627241889e-06,0.00016239257820416242,2.1189855033298954e-05,4.2377600038889796e-05
-1.9978841010015458e-05,0.00014907200238667428,-2.1669397938239854e-06,3.8449696148745716e-05
-2.9936147257103585e-05,8.985254680737853e-05,-2.6116755179828033e-05,3.433968959143385e-05
-3.320728137623519e-05,4.882396024186164e-05,-4.068041380378418e-05,2.9757642550976016e-05
-3.219396239728667e-05,6.845047028036788e-05,-4.162602999713272e-05,2.9064616683172062e-05
-3.119124085060321e-05,7.919725612737238e-05,-3.539182580425404e-05,3.246796040912159e-05
-2.8822876629419625e-05,3.9274378650588915e-05,-2.8896809453726746e-05,3.9007987652439624e-05
-2.2992498998064548e-05,3.557460513547994e-05,-2.5260602342314087e-05,4.8635083658155054e-05
-2.0708568627014756e-05,0.00011727404489647597,-2.937531826319173e-05,5.497804158949293e-05
-2.5459681637585163e-05,0.00013097753981128335,-3.949393430957571e-05,5.34916362084914e-05
-3.2039730285760015e-05,-4.36140635429183e-06,-4.6609999117208645e-05,4.824889401788823e-05
-3.6394030757946894e-05,-9.76951268967241e-05,-4.329925650381483e-05,4.328681461629458e-05
-3.549276516423561e-05,1.0732657756307162e-05,-2.8401012968970463e-05,4.019236075691879e-05
-3.195027602487244e-05,0.0002014279889408499,-1.5642117432435043e-05,3.881491284118965e-05
-3.2515697967028245e-05,0.00026891351444646716,-1.4422603271668777e-05,3.787502282648347e-05
-3.684749026433565e-05,0.0001731119118630886,-1.7437383576179855e-05,3.526217915350571e-05
-3.800704871537164e-05,2.71329718088964e-05,-1.0616778126859572e-05,3.870036016451195e-05
-3.0083452656981535e-05,-8.438896475126967e-05,3.4877227790275356e-06,5.47283016203437e-05
-1.9261269699200056e-05,-0.00011718891619239002,8.851684469846077e-06,6.926994683453813e-05
-1.7240638044313528e-05,-9.833455260377377e-05,6.001371843922243e-07,7.201279368018731e-05
-2.5183189791277982e-05,-0.00010832352563738823,-1.0780042430269532e-05,6.731809116899967e-05
-2.8049555112374946e-05,-0.00012537410657387227,-1.2390977644827217e-05,6.414000381482765e-05
-2.3143353246268816e-05,-9.209068957716227e-05,-7.903070581960492e-06,6.373931682901457e-05
-1.902209987747483e-05,-1.2059257642249577e-05,-2.7592541300691664e-06,6.899734580656514e-05
-1.5133759006857872e-05,8.817945490591228e-05,4.9098534873337485e-06,7.385791832348332e-05
-9.533098818792496e-06,0.00016763433814048767,1.7457337889936753e-05,7.650512998225167e-05
-4.567268661048729e-06,0.0002010856260312721,2.660680729604792e-05,7.93732178863138e-05
-3.767480166061432e-06,0.00017713972192723304,2.4179385945899412e-05,8.072900527622551e-05
-6.585568371519912e-06,8.654657722217962e-05,1.668655932007823e-05,8.044931018957868e-05
-1.3558045793615747e-05,-8.225144119933248e-05,1.1639826880127657e-05,7.53277272451669e-05
-2.476334702805616e-05,-0.00027544659678824246,1.14047452370869e-05,6.642538210144266e-05
-3.4529159165685996e-05,-0.00034912870614789426,1.447682279831497e-05,5.6665441661607474e-05
-3.7812751543242484e-05,-0.0002280807530041784,1.877665454230737e-05,5.071688792668283e-05
-3.4642718674149364e-05,-5.697840606444515e-05,2.0067684090463445e-05,5.251266702543944e-05
-2.893319833674468e-05,-9.377974492963403e-06,1.8818687749444507e-05,6.186140672070906e-05
-2.814089930325281e-05,-6.654942262684926e-05,1.7517993910587393e-05,6.933986878721043e-05
-3.487653884803876e-05,-0.00012661343498621136,1.0547089914325625e-05,6.847896293038502e-05
-4.2245945223839954e-05,-0.0001383789349347353,-4.7231937969627324e-06,5.951736602582969e-05
-4.183219789410941e-05,-8.717888704268262e-05,-2.153301284124609e-05,5.254792995401658e-05
-4.0427723433822393e-05,2.5133165308943717e-06,-3.2766391086624935e-05,5.359845454222523e-05
-4.773709224537015e-05,7.795151032041758e-05,-4.1741343011381105e-05,5.565202809520997e-05
-5.701194459106773e-05,0.00013211868645157665,-5.3838743042433634e-05,5.3280939027899876e-05
-5.576646071858704e-05,0.00019132738816551864,-6.241661321837455e-05,5.069725011708215e-05
-4.962463935953565e-05,0.00025050900876522064,-6.235233013285324e-05,4.9825663154479116e-05
-4.6296710934257135e-05,0.00024005556770134717,-5.254052666714415e-05,4.706197796622291e-05
-3.85576713597402e-05,0.0001741302985465154,-3.542234480846673e-05,4.632658601622097e-05
-2.9590515623567626e-05,0.00015191247803159058,-2.0455956473597325e-05,5.2469218644546345e-05
-2.2197404177859426e-05,0.00019413161498960108,-1.588642226124648e-05,5.9224534197710454e-05
-1.1299415746179875e-05,0.00021424681472126395,-1.5683568562963046e-05,6.415389361791313e-05
-4.056231318827486e-06,0.00012659358617383987,-1.600364521436859e-05,6.44225874566473e-05
-4.902654836769216e-06,-8.645031812193338e-06,-1.9254870494478382e-05,5.992494698148221e-05
-6.341293556033634e-06,-7.916255708551034e-05,-1.8651733626029454e-05,5.733459329348989e-05
-4.563199127005646e-06,-6.754503556294367e-05,-1.5243869711412117e-05,5.709068864234723e-05
-2.6314062324672705e-06,-7.45656825529295e-06,-1.1852336683659814e-05,6.01250612817239e-05
-5.050322670285823e-06,2.6990766855305992e-05,-1.046137185767293e-05,6.321841647149995e-05
-1.4995659512351267e-05,2.0983105059713125e-05,-1.3033243703830522e-05,5.9405978390714154e-05
-2.9141203413018957e-05,7.076087513269158e-06,-1.5790341421961784e-05,5.0429312977939844e-05
-4.208583777653985e-05,6.0336819842632394e-06,-1.792588591342792e-05,4.522589370026253e-05
-5.008167136111297e-05,3.20658837154042e-05,-2.1212899810052477e-05,4.353386611910537e-05
-5.046775549999438e-05,7.645363075425848e-05,-2.104211125697475e-05,4.3224110413575545e-05
-4.297976920497604e-05,9.561995102558285e-05,-1.2919490472995676e-05,4.7752673708600923e-05
-3.1924522772897035e-05,6.12297881161794e-05,-4.121407982893288e-06,5.663745105266571e-05
-2.1755944544565864e-05,-3.0594633244618308e-06,-1.8805903891916387e-06,6.232535088201985e-05
-1.4378410014614929e-05,-6.118518649600446e-05,-5.687256816599984e-06,6.219048373168334e-05
-1.3360162483877502e-05,-7.890068809501827e-05,-9.364463949168567e-06,5.787038026028313e-05
-1.9496563254506327e-05,-5.074808359495364e-05,-7.698414265178144e-06,5.2311515901237726e-05
-2.587364724604413e-05,-2.9497068680939265e-05,-3.373047547938768e-06,5.357343616196886e-05
-2.491637678758707e-05,-7.305259350687265e-05,-2.425208094791742e-06,5.950729610049166e-05
-1.803194209060166e-05,-0.00012072749086655676,-5.36889820068609e-06,6.07634246989619e-05
-1.1517132406879682e-05,-0.000108788997749798,-6.991171630943427e-06,5.6547429267084226e-05
-1.201877421408426e-05,-6.398854748113081e-05,-6.2830090428178664e-06,5.545323438127525e-05
-1.7127276805695146e-05,-1.0597492291708477e-05,-3.962624759878963e-06,6.187504186527804e-05
-1.8315493434784003e-05,3.8663300074404106e-05,-2.316520294698421e-06,6.608967669308186e-05
-2.156025220756419e-05,7.007392559899017e-05,-2.9281218303367496e-06,6.311949982773513e-05
-2.6311416149837896e-05,7.897808973211795e-05,-1.4832836541245342e-06,6.121087062638253e-05
-2.4875987946870737e-05,6.958913581911474e-05,5.8862460718955845e-06,6.882831803523004e-05
-2.2695234292768873e-05,8.659585000714287e-05,1.2227404113218654e-05,7.54220673115924e-05
-2.2986725525697693e-05,0.00012376147788017988,1.0936563739960548e-05,7.045528036542237e-05
-2.434797897876706e-05,0.00014979756087996066,8.100505510810763e-06,6.276396015891805e-05
-2.6342600904172286e-05,0.00011344580707373098,8.224992598115932e-06,6.0255064454395324e-05
-2.9359083782765083e-05,1.654909829085227e-05,1.1836419616884086e-05,6.316262442851439e-05
-2.843864967871923e-05,-8.512772910762578e-05,1.411213270330336e-05,6.931972166057676e-05
-2.3866034098318778e-05,-0.00019059002806898206,1.3796499843010679e-05,7.444473158102483e-05
-2.090876478177961e-05,-0.00024660813505761325,1.65805085998727e-05,7.586614810861647e-05
-2.340472383366432e-05,-0.00022152496967464685,2.1203843061812222e-05,7.202008418971673e-05
-2.752701948338654e-05,-0.00015177740715444088,1.935135696840007e-05,6.424152525141835e-05
-3.055576598853804e-05,-7.127184653654695e-05,7.229160019051051e-06,5.60482767468784e-05
-3.471912714303471e-05,4.6924713387852535e-05,-5.1408001127128955e-06,4.993155016563833e-05
-3.847310654236935e-05,0.00022587839339394122,-1.0329243195883464e-05,4.862414425588213e-05
-3.661370647023432e-05,0.00038398016477003694,-1.5604235159116797e-05,5.118601620779373e-05
-2.8553489755722694e-05,0.0004282828886061907,-2.9541679396061227e-05,5.610169318970293e-05
-2.3114975192584097e-05,0.00037595260073430836,-4.6509565436281264e-05,5.8896308473777026e-05
-2.5445375285926275e-05,0.00028234883211553097,-5.97999278397765e-05,5.4315911256708205e-05
-2.992034023918677e-05,0.00018012795771937817,-6.693296745652333e-05,4.626185545930639e-05
-2.3880633307271637e-05,0.0001173701457446441,-6.0609705542447045e-05,4.507161793299019e-05
-8.762615834712051e-06,0.00012666395923588425,-4.049317431054078e-05,5.209281880524941e-05
1.283366714233125e-06,0.0001940874644787982,-2.284399488416966e-05,6.0236288845771924e-05
2.628996981002274e-06,0.000250185199547559,-1.643797440920025e-05,6.77314747008495e-05
-2.255384742966271e-06,0.00020164347370155156,-1.3339436009118799e-05,7.254914089571685e-05
-1.3435414075502194e-05,7.121848466340452e-05,-1.1446632015577052e-05,6.760627002222463e-05
-2.2474188881460577e-05,-1.1426222954469267e-05,-1.30435437313281e-05,6.058549479348585e-05
-2.396214404143393e-05,-4.949888534611091e-05,-1.3414365639619064e-05,5.646311183227226e-05
-2.1634863514918834e-05,-7.692694634897634e-05,-1.208064622915117e-05,5.4652238759445027e-05
-1.809692184906453e-05,-8.072957280091941e-05,-1.1705740689649247e-05,5.3908417612547055e-05
-1.6652000340400264e-05,-9.600996418157592e-05,-6.825887339800829e-06,5.780297578894533e-05
-2.164495708711911e-05,-0.000156699403305538,-3.566418854461517e-06,6.190587737364694e-05
-3.2010997529141605e-05,-0.00022140001237858087,-9.50696448853705e-06,5.4702850320609286e-05
-4.312158125685528e-05,-0.00022351501684170216,-1.9354900359758176e-05,4.431976776686497e-05
-5.038851668359712e-05,-0.00017130988999269903,-2.6401405193610117e-05,3.8846294046379626e-05
-5.295640221447684e-05,-7.913140871096402e-05,-2.5309616830782034e-05,4.352440373622812e-05
-4.8061632696771994e-05,4.472843556868611e-06,-1.5352976333815604e-05,5.077938476460986e-05
-3.6820849345531315e-05,8.456785508315079e-06,-5.478269031300442e-06,5.5202297517098486e-05
-2.6938243536278605e-05,-5.5566211813129485e-05,-6.998233175181667e-07,6.0415077314246446e-05
-2.3438264179276302e-05,-7.714425737503916e-05,2.8118847694713622e-06,6.677008786937222e-05
