-2.365946966165211e-05,8.407376299146563e-06,-1.0203470083069988e-05,5.734450678573921e-05
-1.8593067579786293e-05,1.4382397239387501e-05,-8.516360139765311e-06,6.139720790088177e-05
-1.871403947006911e-05,9.524104825686663e-06,-8.667365364090074e-06,6.193374429130927e-05
-2.5542691219015978e-05,4.5903118461865233e-07,-4.114007879252313e-06,5.627242353511974e-05
-3.210531212971546e-05,8.73472890816629e-06,2.9531963718909537e-06,5.12396618432831e-05
-3.283898695372045e-05,3.1485644285567105e-05,3.3959358916035853e-06,5.221966785029508e-05
-2.932290044554975e-05,4.1330647945869714e-05,-3.894769179169089e-06,5.319340561982244e-05
-2.596241574792657e-05,4.316172999097034e-05,-1.1896445357706398e-05,5.295747905620374e-05
-2.337886871828232e-05,4.482911390368827e-05,-1.4829266547167208e-05,5.145075192558579e-05
-2.143906385754235e-05,4.6743294660700485e-05,-1.1158769666508306e-05,5.159524880582467e-05
-2.0143372239544988e-05,5.508478352567181e-05,-5.78726758249104e-06,5.373341264203191e-05
-1.8688788259169087e-05,6.579237378900871e-05,-1.897477659440483e-06,5.605522164842114e-05
-1.9489918486215174e-05,6.49982102913782e-05,-4.0441722148898407e-07,5.8097371947951615e-05
-2.2968781195231713e-05,5.235211574472487e-05,1.092346792574972e-06,5.975324165774509e-05
-2.8108152037020773e-05,4.666879976866767e-05,2.4313396806974197e-06,6.0555379604920745e-05
-2.9046546842437238e-05,5.217423313297331e-05,2.4715498057048535e-06,5.939038237556815e-05
-2.353108357056044e-05,5.810415677842684e-05,1.2992741176276468e-06,5.804766988148913e-05
-1.797553886717651e-05,5.65481350349728e-05,-5.61954891509231e-07,5.638489528791979e-05
-1.854301808634773e-05,5.0957518396899104e-05,-4.371525847091107e-06,5.662257899530232e-05
-2.2126487237983383e-05,4.3838401325047016e-05,-1.1001571692759171e-05,6.1144630308263e-05
-2.202190262323711e-05,4.1948380385292694e-05,-1.51935364556266e-05,6.560394103871658e-05
-2.2424334019888192e-05,4.089038338861428e-05,-1.7040430975612253e-05,6.509515515062958e-05
-2.6163643269683234e-05,3.822964208666235e-05,-1.7124315490946174e-05,6.441828008973971e-05
-2.925212356785778e-05,3.6821638786932454e-05,-1.6566666090511717e-05,6.407009641407058e-05
-3.0279979910119437e-05,3.325828583911061e-05,-1.5086009625520092e-05,6.140299956314266e-05
-2.862322435248643e-05,2.311777279828675e-05,-1.3145323464414105e-05,6.082883555791341e-05
-2.938929173978977e-05,9.17287434276659e-06,-1.2414246157277375e-05,6.101826875237748e-05
-2.9721317332587205e-05,5.953788786428049e-06,-1.3008238965994678e-05,6.317113002296537e-05
-2.93220546154771e-05,2.007517105084844e-05,-1.5368896129075438e-05,6.479004514403641e-05
-3.271023160777986e-05,3.133531936327927e-05,-1.869024163170252e-05,6.34097887086682e-05
-3.463280518190004e-05,3.097036460530944e-05,-2.0027833670610562e-05,6.119619501987472e-05
-3.4276541555300355e-05,2.5237866793759167e-05,-1.8907972844317555e-05,6.162803765619174e-05
-2.878743180190213e-05,2.1189649487496354e-05,-1.926695586007554e-05,6.511873652925715e-05
-2.431266511848662e-05,1.897276524687186e-05,-2.2472710043075494e-05,6.714598566759378e-05
-2.2667332814307883e-05,1.8314320186618716e-05,-2.4621045668027364e-05,6.660893996013328e-05
-2.2700256522512063e-05,1.5433413864229806e-05,-2.3598313418915495e-05,6.243630923563614e-05
-2.3428323402185924e-05,1.1664660632959567e-05,-2.196495006501209e-05,5.8347239246359095e-05
-2.509429214114789e-05,1.7411104636266828e-05,-2.1912595911999233e-05,5.8392422943143174e-05
-2.5411198294023052e-05,2.1522395400097594e-05,-1.9028237147722393e-05,6.109792593633756e-05
-2.5678797101136297e-05,1.7318689060630277e-05,-1.3075649803795386e-05,6.525846401927993e-05
-2.9088158044032753e-05,9.111753570323344e-06,-8.80402876646258e-06,6.743705307599157e-05
-3.053988257306628e-05,8.62569868331775e-06,-1.0404001841379795e-05,6.446133193094283e-05
-2.8485283110057935e-05,1.4614881365559995e-05,-1.4961140550440177e-05,5.853169204783626e-05
-2.559176027716603e-05,1.9991881345049478e-05,-1.5455450920853764e-05,5.52760211576242e-05
-2.522635077184532e-05,2.2243491912377067e-05,-1.0069690688396804e-05,5.5166936363093555e-05
-2.532237886043731e-05,2.5376884877914563e-05,-4.5507404138334095e-06,5.620225419988856e-05
-2.6195049940724857e-05,3.4268861782038584e-05,-6.7641717578226235e-06,5.4917218221817166e-05
-2.6649122446542606e-05,4.6953195123933256e-05,-1.4343396287586074e-05,5.217719080974348e-05
-2.4647357349749655e-05,5.9644822613336146e-05,-1.548892214486841e-05,5.149796561454423e-05
-2.086583299387712e-05,7.064344390528277e-05,-9.502687134954613e-06,5.634137778542936e-05
-1.8426761016598903e-05,7.621163240401074e-05,-6.233120075194165e-06,6.495734851341695e-05
-1.7149073755717836e-05,6.795158697059378e-05,-4.6551149353035726e-06,6.684430263703689e-05
-1.730704025248997e-05,5.7382607337785885e-05,-2.630981725815218e-06,6.259646761463955e-05
-2.0082987248315476e-05,4.929368878947571e-05,3.823408405878581e-06,5.856488132849336e-05
-2.1957939679850824e-05,4.18062336393632e-05,1.2617710126505699e-05,5.62686582270544e-05
-2.171010601159651e-05,3.3433509088354185e-05,1.682160291238688e-05,5.3123352699913085e-05
-2.031089024967514e-05,2.192375177401118e-05,1.1371615983080119e-05,4.848155367653817e-05
-1.8004431694862433e-05,1.0363497494836338e-05,2.0074444364581723e-06,4.5566146582132205e-05
-1.7332589777652174e-05,-5.562726983043831e-06,-3.3905848795257043e-06,4.5608139771502465e-05
-1.7520140318083577e-05,-1.6248324754997157e-05,-8.984347005025484e-06,4.962858292856254e-05
-2.0788787878700532e-05,-2.167103230021894e-05,-1.3706059689866379e-05,5.49021024198737e-05
-2.4281058358610608e-05,-2.5584226023056544e-05,-1.3117110938765109e-05,5.814709948026575e-05
-2.454275090713054e-05,-2.114055496349465e-05,-8.842929673846811e-06,6.002530790283345e-05
-2.397097159700934e-05,-1.1636850103968754e-05,-8.56266251503257e-06,5.9196576330577955e-05
-2.6891530069406144e-05,4.396863459987799e-06,-9.640132702770643e-06,5.8794885262614116e-05
-3.089198798988946e-05,2.2213864212972112e-05,-9.167495591100305e-06,5.94028715568129e-05
-3.2101375836646184e-05,2.6845385946216993e-05,-8.776489266892895e-06,6.0752088756999e-05
-3.385467061889358e-05,1.9150413208990358e-05,-8.525361408828758e-06,6.20293794781901e-05
-3.48657340509817e-05,1.716991391731426e-05,-8.728422471904196e-06,6.219837086973712e-05
-3.302318145870231e-05,2.786216646200046e-05,-9.757791303854901e-06,6.123515777289867e-05
-2.976544783450663e-05,3.651127917692065e-05,-1.144715952250408e-05,6.024667527526617e-05
-2.9432365408865735e-05,2.6820789571502246e-05,-1.085677467926871e-05,5.824419713462703e-05
-3.235989061067812e-05,8.207090104406234e-06,-7.469011052307906e-06,5.4613414249615744e-05
-3.6806402931688353e-05,2.2158017145557096e-06,-5.83694009037572e-06,5.290088665788062e-05
-3.524311978253536e-05,9.281471648137085e-06,-1.213370978803141e-05,5.4505897423950955e-05
-2.875018799386453e-05,1.2620149391295854e-05,-2.205078817496542e-05,5.7285487855551764e-05
-2.525540730857756e-05,1.26762943182257e-05,-2.7910293283639476e-05,5.8269732107874006e-05
-2.506770943000447e-05,1.5249830539687537e-05,-2.5550270947860554e-05,5.7806613767752424e-05
-2.51896617555758e-05,1.6590487575740553e-05,-2.0094903447898105e-05,5.491972478921525e-05
-2.7139692974742502e-05,1.3207284609961789e-05,-1.6877767848200165e-05,5.139379936736077e-05
-2.785528158710804e-05,1.0192523404839449e-05,-1.1715112123056315e-05,4.82122995890677e-05
-2.63916499534389e-05,1.4028328223503195e-05,-7.090996859915322e-06,4.98409426654689e-05
-2.9387852919171564e-05,2.3634103854419664e-05,-8.116725439322181e-06,5.161612352821976e-05
-3.150439806631766e-05,2.8213213226990774e-05,-3.26305075759592e-06,5.111688733450137e-05
-3.070671300520189e-05,3.019015639438294e-05,8.104906555672642e-06,4.9518042942509055e-05
-3.1261934054782614e-05,4.133701077080332e-05,1.1182326488778926e-05,4.729221109300852e-05
-3.3057440305128694e-05,5.0963797548320144e-05,6.161615146993427e-06,5.176158083486371e-05
-3.2297666621161625e-05,5.3451014537131414e-05,-1.7331557273791987e-06,5.588357453234494e-05
-2.520081579859834e-05,4.4282747694524005e-05,-1.0627254596329294e-05,5.5637636251049116e-05
-1.863136094470974e-05,3.2819869375089183e-05,-1.4814504538662732e-05,5.379180583986454e-05
-1.644922303967178e-05,3.151441705995239e-05,-1.1325100786052644e-05,5.087765021016821e-05
-1.52974171214737e-05,3.76791758753825e-05,-7.0064656938484404e-06,4.765589619637467e-05
-1.7055330317816697e-05,4.3964129872620106e-05,-7.246530003612861e-06,4.7148536395980045e-05
-1.9429966414463706e-05,4.356597492005676e-05,-9.559168574924115e-06,4.9656857299851254e-05
-1.9700983102666214e-05,3.738068699021824e-05,-1.0685257620934863e-05,5.384999167290516e-05
-2.0248360669938847e-05,3.1293591746361926e-05,-1.0258815564156976e-05,5.8046185586135834e-05
-2.3423290258506313e-05,2.581985609140247e-05,-8.068890565482434e-06,5.9113852330483496e-05
-2.7062464141636156e-05,2.0193854652461596e-05,-7.124389412638266e-06,5.8693949540611356e-05
-2.849920383596327e-05,1.9332368538016453e-05,-9.135176696872804e-06,5.804699321743101e-05
-2.7480495191412047e-05,2.2568352505913936e-05,-1.0280159585818183e-05,5.7204128097509965e-05
-2.5595174520276487e-05,2.6199921194347553e-05,-7.295908289961517e-06,5.6803539337124676e-05
-2.428493280604016e-05,2.804008181556128e-05,-3.382338491064729e-06,5.86520618526265e-05
-2.551680154283531e-05,2.2911774067324586e-05,-3.4820932341972366e-06,6.075853161746636e-05
-2.7557945941225626e-05,9.766709808900487e-06,-7.862259735702537e-06,5.998152118991129e-05
-2.4436989406240173e-05,2.1234757241472835e-06,-1.2429410162440035e-05,5.851621608599089e-05
-2.102250437019393e-05,5.802373379992787e-06,-1.441515087208245e-05,6.141413905424997e-05
-2.2572528905584477e-05,1.0717172699514776e-05,-1.7223646864295006e-05,6.469961954280734e-05
-2.710294211283326e-05,1.3889723049942404e-05,-1.983454785658978e-05,6.08079026278574e-05
-3.1045001378515735e-05,1.4316936358227395e-05,-1.6915559172048233e-05,5.0870454288087785e-05
-3.1371499062515795e-05,1.0541210940573364e-05,-1.27317480291822e-05,5.094896914670244e-05
-3.002662560902536e-05,1.252668607776286e-05,-1.2571896149893291e-05,5.8726898714667186e-05
-2.8573071176651865e-05,1.3134831533534452e-05,-1.3907269931223709e-05,6.176727038109675e-05
-2.953404327854514e-05,8.79125582287088e-06,-1.6563208191655576e-05,5.7288438256364316e-05
-3.25955479638651e-05,7.78353950181554e-08,-2.0992114514228888e-05,5.028084706282243e-05
-3.6352197639644146e-05,-1.0832175576069858e-05,-2.2284846636466682e-05,5.1818351494148374e-05
-4.184852514299564e-05,-1.366339984087972e-05,-1.8640721464180388e-05,5.3161831601755694e-05
-4.430740591487847e-05,-1.877834256447386e-05,-1.4777807336940896e-05,5.4780008213128895e-05
-4.271911166142672e-05,-2.794109605019912e-05,-1.3786358067591209e-05,5.71956807107199e-05
-3.939059024560265e-05,-2.69717911578482e-05,-1.2664482710533775e-05,5.8389668993186206e-05
-3.6732035368913785e-05,-1.3169700650905725e-05,-1.3581235180026852e-05,5.882016193936579e-05
-3.540975376381539e-05,3.825927251455141e-06,-1.808153319871053e-05,5.9467984101502225e-05
-3.614325760281645e-05,1.031051215250045e-05,-2.180219416914042e-05,6.140415644040331e-05
-3.919360096915625e-05,4.554708993964596e-06,-2.430237509543076e-05,6.137642048997805e-05
-4.328661088948138e-05,-3.018267761945026e-06,-2.5139186618616804e-05,5.9964779211441055e-05
-4.505195465753786e-05,-2.7580172172747552e-06,-2.2287193132797256e-05,5.814509131596424e-05
-4.223684300086461e-05,2.5684480533527676e-06,-1.7619873688090593e-05,5.47897579963319e-05
-3.7139139749342576e-05,6.933335043868283e-06,-1.6247389794443734e-05,5.090567719889805e-05
-3.4070191759383306e-05,1.3614048839372117e-05,-1.7944970750249922e-05,5.0187238230137154e-05
-3.485646448098123e-05,2.376459633524064e-05,-1.537957723485306e-05,5.2074497943976894e-05
-3.2796251616673544e-05,4.1885698010446504e-05,-2.000490212594741e-06,5.7029588788282126e-05
-2.4858911274350248e-05,7.13706758688204e-05,1.5704112229286693e-05,6.512296386063099e-05
-1.76959547388833e-05,9.312320617027581e-05,2.261822737636976e-05,7.113730680430308e-05
-1.588579652889166e-05,9.16646677069366e-05,1.5299008737201802e-05,7.062472286634147e-05
-2.1764250050182454e-05,8.117366814985871e-05,3.3921212434506742e-06,6.544870848301798e-05
-2.591755946923513e-05,7.505265239160508e-05,-4.15290151067893e-06,5.986795440549031e-05
-1.857163806562312e-05,8.790950960246846e-05,-2.8270608254388208e-06,5.706257070414722e-05
-1.1869752597704064e-05,0.00012384576257318258,3.5890880099032074e-06,5.784734457847662e-05
-7.807737347320653e-06,0.00014209325308911502,8.494934263580944e-06,6.333328201435506e-05
-2.385179413977312e-06,0.00010452868446009234,7.419143003062345e-06,6.948714144527912e-05
3.779768746881018e-07,3.50176815118175e-05,6.128089808044024e-06,7.170550088630989e-05
-7.333972007472767e-08,-1.776494536898099e-05,5.0005455705104396e-06,6.961741746636108e-05
2.749015720837633e-06,-3.7971403799019754e-05,2.9707773592235753e-06,7.02863180777058e-05
8.528493708581664e-06,-3.3882672141771764e-05,2.8515262329165125e-06,7.413785351673141e-05
9.636480172048323e-06,-1.599294955667574e-05,1.70516636899265e-06,7.541148806922138e-05
7.826902219676413e-06,-1.4302756426332053e-05,6.900976927681768e-07,7.24172277841717e-05
5.9688954934244975e-06,-5.025972131988965e-05,-4.861628440266941e-06,6.989225948927924e-05
5.28824379841808e-08,-8.210084342863411e-05,-1.0654426660039462e-05,7.137972716009244e-05
-1.1974345397902653e-05,-6.245975964702666e-05,-1.3238668543635868e-05,7.434035796904936e-05
-2.395263254584279e-05,-4.551528036245145e-06,-1.3185000170778949e-05,7.297369302250445e-05
-3.1109560950426385e-05,5.0856720918091014e-05,-1.1293741408735514e-05,6.670362199656665e-05
-3.3473348594270647e-05,9.001814032671973e-05,-1.1213616744498722e-05,6.17953555774875e-05
-3.1800431315787137e-05,0.00012052700185449794,-1.5243079360516276e-05,6.222378578968346e-05
-2.800188485707622e-05,0.00013394518464338034,-2.026241782004945e-05,6.395215314114466e-05
-2.5169221771648154e-05,0.00012004037853330374,-2.287547249579802e-05,6.313515768852085e-05
-2.8568008929141797e-05,8.834738400764763e-05,-2.4956038032541983e-05,6.20205610175617e-05
-3.731831748154946e-05,5.1152059313608333e-05,-2.9246253689052537e-05,5.9201880503678694e-05
-4.1570296161808074e-05,2.326958201592788e-05,-3.203091910108924e-05,5.493290154845454e-05
-4.002399873570539e-05,1.6920890629990026e-05,-2.8547299734782428e-05,5.3762123570777476e-05
-3.867295527015813e-05,1.6463081919937395e-05,-2.3759366740705445e-05,5.576782132266089e-05
-3.514545096550137e-05,5.7163961173500866e-06,-2.0147192117292434e-05,5.572022928390652e-05
-2.8942818971700035e-05,-4.788496880792081e-06,-1.6569834770052694e-05,5.588548447121866e-05
-2.5374070901307277e-05,1.2986101864953525e-06,-1.1982197065663058e-05,5.37170963070821e-05
-2.328992195543833e-05,1.4205109437170904e-05,-9.250676157535054e-06,4.992724279873073e-05
-2.222277362307068e-05,2.1336438294383697e-05,-1.1673872904793825e-05,5.0029473641188815e-05
-2.1607465896522626e-05,2.4972519895527512e-05,-1.771016832208261e-05,5.193223478272557e-05
-2.372436210862361e-05,2.2580739823752083e-05,-2.1220892449491657e-05,5.302248246152885e-05
-2.7527534257387742e-05,1.7873244360089302e-05,-2.292782301083207e-05,5.352057996788062e-05
-2.9630224162247032e-05,1.4030452803126536e-05,-2.153843524865806e-05,5.326302198227495e-05
-2.9218883355497383e-05,1.3641790246765595e-05,-1.861022610682994e-05,5.5694003094686195e-05
-2.705124279600568e-05,1.8307810023543425e-05,-1.7560296328156255e-05,5.901241456740536e-05
-2.6178586267633364e-05,2.3302180125028826e-05,-1.6838965166243725e-05,6.012961603119038e-05
-2.8452168407966383e-05,2.8887734515592456e-05,-1.489289388700854e-05,5.6239958212245256e-05
-3.401797584956512e-05,3.571802153601311e-05,-1.1154074854857754e-05,5.297705138218589e-05
-3.673240644275211e-05,3.927368379663676e-05,-6.645283519901568e-06,5.1011593313887715e-05
-3.471453965175897e-05,3.773872958845459e-05,-3.6822671063418966e-06,4.750003427034244e-05
-3.08602029690519e-05,3.179213308612816e-05,-2.4647151803947054e-06,4.6541710617020726e-05
-2.9097156584612094e-05,2.358312667638529e-05,-1.9230637917644344e-06,4.4186865125084296e-05
-2.8987653422518633e-05,1.78977134055458e-05,-3.520332256812253e-06,4.1763381886994466e-05
-2.9195711249485612e-05,1.9212304323446006e-05,-5.38658605364617e-06,4.071095463586971e-05
-2.9543103664764203e-05,2.3264361516339704e-05,-5.361236162571004e-06,4.158545198151842e-05
-2.985485662065912e-05,2.6108442398253828e-05,-4.16223792853998e-06,4.538758730632253e-05
-2.8139906135038473e-05,2.6378826078143902e-05,-4.251922746334458e-06,5.1600240112748e-05
-2.425271668471396e-05,2.2675900254398584e-05,-6.3500660871795844e-06,5.363421587389894e-05
-2.2995720428298227e-05,1.682270158198662e-05,-9.846423381532077e-06,5.364145545172505e-05
-2.5744213417056017e-05,1.1064122190873604e-05,-1.2537598195194732e-05,5.3059957281220704e-05
-3.0361781682586297e-05,9.3406270025298e-06,-1.4024105439602863e-05,5.326591417542659e-05
-3.37343335559126e-05,1.2567963494802825e-05,-1.3444892829284072e-05,5.507365131052211e-05
-3.629029743024148e-05,2.197139292547945e-05,-9.78138268692419e-06,5.7159748394042253e-05
-3.590578489820473e-05,2.666703767317813e-05,-4.396333679324016e-06,5.979384150123224e-05
-3.158519393764436e-05,1.8323000404052436e-05,-1.4150665492707049e-06,5.800206054118462e-05
-2.924319778685458e-05,2.051740921160672e-06,-2.9423511023196625e-06,5.779065395472571e-05
-2.8721115086227655e-05,-1.658350993238855e-05,-7.087677659001201e-06,5.750915443059057e-05
-3.0718729249201715e-05,-1.738497485348489e-05,-1.0511191703699296e-06,5.906773003516719e-05
-3.144426955259405e-05,3.32508398059872e-06,1.142370001616655e-05,6.135221337899566e-05
-2.4896578906918876e-05,2.7586445867200382e-05,1.5333889678004198e-05,6.0743790527340025e-05
-1.7411035514669493e-05,3.605305391829461e-05,6.622329237870872e-06,6.227545236470178e-05
-1.5284200344467536e-05,3.280898818047717e-05,-1.0759925316961017e-05,6.230048165889457e-05
-1.6014913853723556e-05,3.214588650735095e-05,-2.4549843146814965e-05,6.072130418033339e-05
-1.616279587324243e-05,3.378716792212799e-05,-3.236158954678103e-05,5.807380148326047e-05
-2.1123336409800686e-05,3.858846685034223e-05,-3.057028879993595e-05,5.531140050152317e-05
-2.7613934435066767e-05,3.6080004065297544e-05,-2.0935036445735022e-05,5.3238658438203856e-05
-2.8666881917160936e-05,2.547692747612018e-05,-1.0406753062852658e-05,5.713591235689819e-05
-2.4408915123785846e-05,1.8300084775546566e-05,-4.065460871061077e-06,6.345703877741471e-05
-2.295947888342198e-05,2.185812445532065e-05,-1.1607398420210302e-07,6.60188525216654e-05
-2.419501652184408e-05,3.395590101717971e-05,3.548508630046854e-06,6.821015995228663e-05
-2.388555913057644e-05,4.740197618957609e-05,2.884912873923895e-06,7.43522759876214e-05
-2.316671634616796e-05,4.89456215291284e-05,-2.549688133512973e-06,7.741597801214084e-05
-1.972298741748091e-05,3.883845784002915e-05,-6.690352620353224e-06,7.383511547232047e-05
-1.3602266335510649e-05,3.0413262720685452e-05,-6.301492248894647e-06,7.028733671177179e-05
-1.2210415661684237e-05,2.725785452639684e-05,-4.322337645135121e-06,6.670187576673925e-05
-1.9010713003808632e-05,2.7466971005196683e-05,-6.954389277780137e-07,6.0767306422349066e-05
-2.720484735618811e-05,2.901710286096204e-05,2.6927561975753633e-06,5.564105958910659e-05
-3.318357630632818e-05,3.10127688862849e-05,1.7574129742570221e-06,5.653012340189889e-05
-3.512888361001387e-05,3.4181848604930565e-05,-4.008629275631392e-06,5.875986607861705e-05
-3.363216819707304e-05,3.4773875086102635e-05,-5.748814146500081e-06,5.995642641209997e-05
-3.1948726245900616e-05,3.222063241992146e-05,-2.5574863684596494e-06,5.894966670894064e-05
-3.0988485377747566e-05,3.137427847832441e-05,-2.168212404285441e-06,6.317584484349936e-05
-3.244817708036862e-05,2.8874776035081595e-05,-6.654795015492709e-06,6.850386853329837e-05
-3.45401385857258e-05,2.1964577172184363e-05,-1.180531398858875e-05,6.53940878692083e-05
-3.3207583328476176e-05,1.9298087863717228e-05,-1.564097146911081e-05,6.249253056012094e-05
-2.9641569199156947e-05,2.7152304028277285e-05,-1.546325074741617e-05,6.355001096380875e-05
-2.9407707188511267e-05,3.0043833248782903e-05,-1.1863829968206119e-05,6.5696491219569e-05
-3.2368217944167554e-05,2.24597861233633e-05,-8.177437848644331e-06,6.324128480628133e-05
-2.8724170988425612e-05,1.4649665899924003e-05,-7.508622275054222e-06,5.913256973144598e-05
-2.0827472326345742e-05,1.5204687770165037e-05,-1.273767884413246e-05,5.813570533064194e-05
-1.669626908551436e-05,1.599334427737631e-05,-1.592173066455871e-05,5.91682328376919e-05
-1.782593062671367e-05,1.1467703188827727e-05,-1.499349127698224e-05,5.785859320894815e-05
-1.8263144738739356e-05,8.244866876339074e-06,-1.2359695574559737e-05,5.348000195226632e-05
-1.8425516827846877e-05,4.166728103882633e-06,-6.916052825545194e-06,5.1332412112969905e-05
-2.1835556253790855e-05,-4.559913577395491e-06,-2.6392333438707283e-06,5.238124504103325e-05
-2.497337118256837e-05,-8.074016477621626e-06,-6.463174031523522e-06,5.421585956355557e-05
-2.2492646166938357e-05,-3.1086450746897754e-08,-1.2329219316598028e-05,5.285519364406355e-05
-1.808303022698965e-05,9.064855476026423e-06,-1.2821034943044651e-05,5.253283234196715e-05
-1.859283474914264e-05,1.241582867805846e-05,-1.0012969141826034e-05,5.416351996245794e-05
-2.3140424673329107e-05,1.0183357517234981e-05,-9.056800990947522e-06,5.5406744650099427e-05
-2.742449942161329e-05,6.056081019778503e-06,-1.0734058378147893e-05,5.4070922487881035e-05
-2.7784984922618605e-05,5.612775112240342e-06,-1.2809270629077218e-05,5.354051245376468e-05
-2.55712766374927e-05,9.814733857638203e-06,-1.294861522183055e-05,5.4869346058694646e-05
-2.61947643593885e-05,1.707760566205252e-05,-9.072266038856469e-06,5.5091419199015945e-05
-2.987520201713778e-05,2.4324041078216396e-05,-7.181443834269885e-06,5.442760812002234e-05
-3.0024073566892184e-05,2.6466550480108708e-05,-8.70873645908432e-06,5.535003947443329e-05
-2.252465310448315e-05,2.1325873603927903e-05,-9.745737770572305e-06,5.82413595111575e-05
-1.6231826521106996e-05,1.5705645637353882e-05,-1.0032479622168466e-05,5.6993838370544836e-05
-1.5191058082564268e-05,1.4105046830081847e-05,-8.098669241007883e-06,5.421818059403449e-05
-1.580646676302422e-05,9.891957233776338e-06,-3.526366526784841e-06,5.4451033065561205e-05
-2.1172321794438176e-05,9.659930583438836e-06,-1.0773304381928028e-07,5.3328625654103234e-05
-2.5056053345906548e-05,1.216783402924193e-05,-1.0643661880749278e-06,5.028224768466316e-05
-2.5325754904770292e-05,1.8727601855061948e-05,-4.422559413796989e-06,5.179993240744807e-05
-2.0154306184849702e-05,3.689849836518988e-05,-2.725580316109699e-06,5.718975808122195e-05
-1.572362998558674e-05,5.203352338867262e-05,-1.8519016293794266e-06,6.101306280470453e-05
-1.798576704459265e-05,5.2244919061195105e-05,-5.3881244639342185e-06,5.9365771448938176e-05
-2.124662569258362e-05,5.044461795478128e-05,-6.920073246874381e-06,5.7965564337791875e-05
-2.307780960109085e-05,5.342959047993645e-05,-7.059704785206122e-06,5.871268149348907e-05
-2.7369078452466056e-05,5.495279037859291e-05,-8.488553248753306e-06,5.800591316074133e-05
-3.2652922527631745e-05,5.449236778076738e-05,-1.0144081898033619e-05,5.427006180980243e-05
-3.557439777068794e-05,4.8142501327674836e-05,-1.004170007945504e-05,5.10673489770852e-05
-3.504694177536294e-05,3.882629607687704e-05,-1.2151041119068395e-05,5.241139660938643e-05
-3.263365215389058e-05,3.183082299074158e-05,-1.642976167204324e-05,5.602829696726985e-05
-2.855168168025557e-05,3.009465399372857e-05,-1.6929294361034408e-05,5.786732072010636e-05
-2.293492798344232e-05,3.432480662013404e-05,-1.2554568456835113e-05,5.8872868976322934e-05
-1.9933595467591658e-05,4.00860226363875e-05,-8.093241376627702e-06,5.693726780009456e-05
-2.0255260096746497e-05,4.085618274984881e-05,-6.488064627774293e-06,5.2018993301317096e-05
-2.0893623513984494e-05,3.54167350451462e-05,-7.617974461027188e-06,5.047652666689828e-05
-1.7158834452857263e-05,2.7099702492705546e-05,-1.1458328117441852e-05,5.3142877732170746e-05
-1.3684970326721668e-05,1.920385329867713e-05,-1.5992429325706325e-05,5.627950304187834e-05
-1.7046892025973648e-05,1.5832678400329314e-05,-1.635627450013999e-05,5.860605961061083e-05
-2.417044379399158e-05,1.5911586160655133e-05,-1.348124260402983e-05,5.974217856419273e-05
-2.9960823667352088e-05,1.2427865840436425e-05,-1.417060320818564e-05,6.038993888068944e-05
-3.0748098652111366e-05,7.848544555599801e-06,-1.4924362403689884e-05,6.004283204674721e-05
-3.0072771551203914e-05,7.304146947717527e-06,-9.65130948316073e-06,5.857463838765398e-05
-3.6113062378717586e-05,1.0034380466095172e-05,-3.967415523220552e-06,6.089968155720271e-05
-4.143143814872019e-05,1.4597240806324407e-05,1.5172317944234237e-06,6.320529064396396e-05
-3.954770363634452e-05,2.0681303794845007e-05,1.2395018984534545e-06,6.834687519585714e-05
-3.270602974225767e-05,2.8931395718245767e-05,-3.3403284760424867e-06,6.84873666614294e-05
-2.767087244137656e-05,3.1447503715753555e-05,-5.759470241173403e-06,6.146005762275308e-05
-2.6067133148899302e-05,2.99965849990258e-05,-6.598605068575125e-06,5.953955405857414e-05
-2.3422660888172686e-05,2.7112771931570023e-05,-6.381475941452663e-06,6.03373373451177e-05
-2.1659410776919685e-05,2.0023104298161343e-05,-7.798683327564504e-06,6.124580977484584e-05
-2.650439455464948e-05,1.835139664763119e-05,-8.315019840665627e-06,6.0211281379451975e-05
-3.2185511372517794e-05,2.1610256226267666e-05,-1.1766050192818511e-05,5.895176946069114e-05
-3.6496901884675026e-05,1.988724761758931e-05,-1.5590814655297436e-05,5.8075256674783304e-05
-3.794864096562378e-05,1.4962087334424723e-05,-1.8041060684481636e-05,5.7838009524857625e-05
-3.6617078876588494e-05,1.2486644664022606e-05,-2.0835779650951736e-05,6.072379255783744e-05
-3.3662359783193097e-05,1.4257017937779892e-05,-2.5293782528024167e-05,6.440346624003723e-05
-3.219790960429236e-05,2.6832271032617427e-05,-2.61435670836363e-05,6.435808609239757e-05
-3.276217103120871e-05,5.092686478747055e-05,-2.1007866962463595e-05,6.118309102021158e-05
-3.0351458917721175e-05,7.441919296979904e-05,-1.3539090105041396e-05,5.98501501372084e-05
-2.612386379041709e-05,8.79786311998032e-05,-8.024385351745877e-06,5.9876678278669715e-05
-2.186968777095899e-05,9.477673302171752e-05,-6.472010227298597e-06,6.057267091819085e-05
-2.0927487639710307e-05,9.063917241292074e-05,-7.469157480954891e-06,6.112307892180979e-05
-2.2771051590098068e-05,5.350014544092119e-05,-1.3255805242806673e-05,6.31273360340856e-05
-2.337111800443381e-05,-1.050400169333443e-05,-2.1679063138435595e-05,6.470294465543702e-05
-2.0234345356584527e-05,-4.072834781254642e-05,-2.399648292339407e-05,6.081254468881525e-05
-1.871612221293617e-05,-1.0519477655179799e-05,-1.90914415725274e-05,5.576478361035697e-05
-2.1770591047243215e-05,2.6247606001561508e-05,-1.690273711574264e-05,5.5870004871394485e-05
-2.666006184881553e-05,3.097977605648339e-05,-1.4599793757952284e-05,5.737246829085052e-05
-3.0144556149025448e-05,3.0190087272785604e-05,-1.2740908459818456e-05,5.525107917492278e-05
-3.261227539042011e-05,3.9548551285406575e-05,-1.879403498605825e-05,5.115207750350237e-05
-3.197344994987361e-05,4.445197555469349e-05,-2.5644389097578824e-05,4.615391662809998e-05
-2.944680272776168e-05,3.858716081595048e-05,-2.0488269001361914e-05,4.7804620407987386e-05
-2.605858026072383e-05,3.298389492556453e-05,-1.0563336218183395e-05,5.1492090278770775e-05
-2.687769847398158e-05,3.6230710975360125e-05,-1.0277513865730725e-05,5.154193058842793e-05
-3.2236523111350834e-05,3.456788545008749e-05,-2.0162991859251633e-05,5.346271791495383e-05
-3.771364572457969e-05,1.4147558431432117e-05,-2.4006812964216806e-05,5.47867311979644e-05
-3.772709533222951e-05,-2.204730481025763e-05,-1.9705463273567148e-05,5.420441084424965e-05
-3.186565299984068e-05,-4.716155308415182e-05,-1.4496717994916253e-05,5.222995241638273e-05
-2.6639656425686553e-05,-4.60243463749066e-05,-9.935939488059375e-06,5.303428406477906e-05
-2.529459925426636e-05,-2.0167613911326043e-05,-9.867189874057658e-06,5.4349886340787634e-05
-2.7656020392896608e-05,5.819199486722937e-06,-1.5364970749942586e-05,5.272293492453173e-05
-2.8997810659348033e-05,1.5122706827241927e-05,-2.100059100484941e-05,5.1298888138262555e-05
-2.6682810130296275e-05,1.2711703675449826e-05,-1.9741188225452788e-05,5.1810795412166044e-05
-2.271473204018548e-05,1.1293050192762166e-05,-1.4337760148919187e-05,5.286416126182303e-05
-2.1971591195324436e-05,1.5259551219060086e-05,-1.0561842827883083e-05,5.1131504733348265e-05
-2.39951641560765e-05,2.0030107407364994e-05,-7.32089256416657e-06,5.009643064113334e-05
-2.5206269128830172e-05,2.158363349735737e-05,1.0355489621360903e-06,5.305257946019992e-05
-2.2780561266699806e-05,1.86418055818649e-05,1.1454617379058618e-05,6.051735545042902e-05
-1.8419161278870888e-05,1.9719942429219373e-05,1.6958509149844758e-05,6.692956230835989e-05
-1.3662534911418334e-05,2.8280672268010676e-05,1.5308791262214072e-05,6.637653132202104e-05
-1.2555397006508429e-05,4.30746549682226e-05,8.40694883663673e-06,5.93586009927094e-05
-1.546677594888024e-05,6.016525367158465e-05,-1.045675830368964e-07,5.519622936844826e-05
-1.8377259038970806e-05,7.526152330683544e-05,-5.470687938213814e-06,5.827227505506016e-05
-1.885749225039035e-05,7.662672578589991e-05,-1.001646614895435e-05,6.145003135316074e-05
-1.5572650227113627e-05,6.570729601662606e-05,-1.6299472918035462e-05,6.031489101587795e-05
-1.1898955563083291e-05,5.121386129758321e-05,-2.1255507817841135e-05,5.833856630488299e-05
-1.2483621503633913e-05,3.727543662535027e-05,-2.1680674763047136e-05,5.9907913964707404e-05
-1.7964122889679857e-05,3.394255327293649e-05,-1.9383292965358123e-05,6.190501153469086e-05
-2.513576328055933e-05,3.814954834524542e-05,-1.9806817363132723e-05,6.16668039583601e-05
-2.75538295682054e-05,3.6533292586682364e-05,-2.264859176648315e-05,6.281714013312012e-05
-2.6135377993341535e-05,3.6513541999738663e-05,-2.229017991339788e-05,6.424399180104956e-05
-2.5849825760815293e-05,3.682084570755251e-05,-1.4599990208807867e-05,6.5324675233569e-05
-2.674352981557604e-05,3.3619569876464084e-05,-4.930747309117578e-06,6.82238896843046e-05
-2.6422103474033065e-05,2.3021460947347805e-05,-3.1354636575997574e-07,6.555267464136705e-05
-2.24789710046025e-05,1.3406128346105106e-05,5.232629405327316e-07,5.932198837399483e-05
-1.9781491573667154e-05,1.1900900972250383e-05,4.7226097876773565e-07,5.5280856031458825e-05
-2.0806755856028758e-05,1.823402453737799e-05,-1.4465982758338214e-06,5.5290351156145334e-05
-2.0794001102331094e-05,2.52411664405372e-05,-5.870466793567175e-06,5.798200800199993e-05
-1.7711627151584253e-05,2.69147967628669e-05,-6.903606390551431e-06,6.182689685374498e-05
-1.3653577298100572e-05,2.8453318009269424e-05,-3.93435720980051e-06,6.533911073347554e-05
-1.0334360013075639e-05,3.395896055735648e-05,-1.9744582004932454e-06,6.550928810611367e-05
-9.001330909086391e-06,3.983815622632392e-05,-3.206712108294596e-06,6.554296851390973e-05
-9.718455658003222e-06,4.098272620467469e-05,-5.614776910078945e-06,6.922362081240863e-05
-1.1780021850427147e-05,4.0964871004689485e-05,-7.724837814748753e-06,7.093978638295084e-05
-1.6206831787712872e-05,3.7723537388956174e-05,-7.599515811307356e-06,6.775152724003419e-05
-2.1003859728807583e-05,3.436891711317003e-05,-3.7090790101501625e-06,6.42692029941827e-05
-2.2897174858371727e-05,2.85906844510464e-05,-5.896567927266005e-07,6.221202056622133e-05
-2.3097638404578902e-05,1.7857882994576357e-05,-2.945705773527152e-06,6.251816375879571e-05
-2.65848411800107e-05,8.98918733582832e-06,-8.78420723893214e-06,6.351734919007868e-05
-3.0123286705929786e-05,5.891125510970596e-06,-1.2422237887221854e-05,6.543402560055256e-05
-3.095547799603082e-05,7.783580144860025e-07,-1.1571732102311216e-05,6.429436325561255e-05
-3.0790506571065634e-05,-2.079585556202801e-06,-1.0149890840693843e-05,5.674927160725929e-05
-3.0350523957167752e-05,1.1589236237341538e-06,-1.249914294021437e-05,5.0791612011380494e-05
-3.1855935958446935e-05,8.437871656497009e-06,-1.7856395061244257e-05,5.175358819542453e-05
-3.469676448730752e-05,1.5680001524742693e-05,-2.2849446395412087e-05,5.669333768310025e-05
-3.292328983661719e-05,1.762787542247679e-05,-2.751469764916692e-05,6.41927108517848e-05
-2.8215343263582326e-05,1.673130100243725e-05,-3.155173180857673e-05,6.798737013014033e-05
-3.0189230528776534e-05,1.7141013813670725e-05,-3.0840277759125456e-05,6.774502980988473e-05
-3.315546928206459e-05,1.4256355825637002e-05,-2.7681275241775438e-05,6.837968248873949e-05
-3.329774699523114e-05,6.135186595201958e-06,-2.047945417871233e-05,6.86748608131893e-05
-3.0249308110796846e-05,-3.1308402412832947e-06,-1.1896690921275876e-05,6.524461787194014e-05
-2.891958865802735e-05,-5.992648766550701e-06,-5.682025857822737e-06,5.9140496887266636e-05
-2.8408725484041497e-05,1.9105398507690552e-07,-1.292732179081213e-07,5.784429231425747e-05
-2.7140977181261405e-05,7.451128567481646e-06,3.89079923479585e-06,6.0625603509834036e-05
-2.600661537144333e-05,8.694216376170516e-06,4.519669346336741e-06,6.214990571606904e-05
-2.4312401365023106e-05,7.535612439824035e-06,1.6163712643901818e-06,5.933317152084783e-05
-2.437541843391955e-05,1.010015512292739e-05,-4.424947292136494e-06,5.525174128706567e-05
-2.120780663972255e-05,1.7632930394029245e-05,-1.0218956958851777e-05,5.3949395805830136e-05
-1.5707253623986617e-05,2.7326637791702524e-05,-1.0210867912974209e-05,5.69692492717877e-05
-1.2077395695087034e-05,3.7026358768343925e-05,-6.5542290030862205e-06,6.041824599378742e-05
-1.4435566299653146e-05,4.802705007023178e-05,-7.696794455114286e-06,5.892663466511294e-05
-1.8769644157146104e-05,5.668938683811575e-05,-1.3003957064938731e-05,5.5005868489388376e-05
-2.1587298761005513e-05,5.705813964596018e-05,-1.3746679542236961e-05,5.1576800615293905e-05
-2.2491727577289566e-05,4.642453495762311e-05,-8.379743121622596e-06,4.9574256991036236e-05
-2.1217550965957344e-05,3.257381104049273e-05,-1.329887936662999e-06,5.023606354370713e-05
-1.8060209185932763e-05,2.917441088357009e-05,2.342754669371061e-06,5.616984344669618e-05
-1.9135473849019036e-05,3.707476207637228e-05,5.892323429179669e-07,6.382965511875227e-05
-2.7296442567603663e-05,4.443086436367594e-05,1.8474615899322089e-06,6.668387504760176e-05
-3.07161571981851e-05,4.938060374115594e-05,1.4119449588179123e-05,6.603492511203513e-05
-2.730321284616366e-05,4.962819366483018e-05,1.9067600078415126e-05,6.715885683661327e-05
-2.6792051357915625e-05,3.7913447158643976e-05,9.6279527497245e-06,6.917377322679386e-05
-2.8309081244515255e-05,1.9088205590378493e-05,-3.3632232998570544e-07,6.886824849061668e-05
-2.7584119379753247e-05,1.029664599627722e-05,-3.154811338390573e-06,6.771719927201048e-05
-2.697494528547395e-05,1.3376535207498819e-05,-2.2795738914282992e-06,6.40580037725158e-05
-2.980166391353123e-05,1.627933670533821e-05,-6.389947429852327e-06,6.20493374299258e-05
-2.930464324890636e-05,1.58362618094543e-05,-1.2278273061383516e-05,5.92598007642664e-05
-2.6447831260156818e-05,1.7406548067810945e-05,-1.3015793228987604e-05,5.2787836466450244e-05
-2.7648145987768658e-05,2.2696338419336826e-05,-8.17756063042907e-06,4.9943999329116195e-05
-3.019817995664198e-05,2.970157947856933e-05,-2.6334289486840134e-06,4.92783983645495e-05
-2.9012697268626653e-05,2.809663965308573e-05,-2.0847961934578052e-07,4.8251855332637206e-05
-2.6066325517604128e-05,1.0596079846436623e-05,-2.20848914977978e-06,4.578202060656622e-05
-2.7197935196454637e-05,-7.803099833836313e-06,-4.9469026635051705e-06,4.330338560976088e-05
-2.9398523111012764e-05,-1.3519340427592397e-05,-6.307748662948143e-06,4.080290818819776e-05
-3.078804729739204e-05,-1.0655751793819945e-05,-8.875865205482114e-06,3.97785370296333e-05
-3.0527640774380416e-05,-1.6634290886941017e-06,-1.3645058061229065e-05,4.0493319829693064e-05
-2.8632499379455112e-05,1.0066972208733205e-05,-1.9322154912515543e-05,4.050153074786067e-05
-2.694926479307469e-05,2.01398397621233e-05,-2.18185487028677e-05,3.889063009410165e-05
-3.126900992356241e-05,2.5995121177402325e-05,-1.8822989659383893e-05,3.9604117773706093e-05
-3.8130267057567835e-05,2.528081131458748e-05,-1.2662189874390606e-05,4.520020229392685e-05
-4.1536794014973566e-05,2.2157919374876656e-05,-8.03548300609691e-06,5.09628516738303e-05
-3.952042607124895e-05,2.150112413801253e-05,-6.677354122075485e-06,5.323110963217914e-05
-3.411098805372603e-05,2.551852958276868e-05,-7.744696631561965e-06,5.4875312343938276e-05
-2.9775384973618202e-05,3.556988303898834e-05,-8.47856790642254e-06,5.644030898110941e-05
-3.140394255751744e-05,4.789957165485248e-05,-8.964914741227403e-06,5.454449274111539e-05
-3.5556899092625827e-05,4.8835412599146366e-05,-1.1649545740510803e-05,5.227322981227189e-05
-3.380760972504504e-05,4.066174369654618e-05,-1.873419023468159e-05,5.294725997373462e-05
-3.1188905268209055e-05,3.869846113957465e-05,-2.4777205908321775e-05,5.530415364773944e-05
-3.324966746731661e-05,4.4615200749831274e-05,-2.432628389215097e-05,5.890902320970781e-05
-3.41241029673256e-05,4.590474418364465e-05,-2.3205167963169515e-05,6.012650192133151e-05
-3.3172720577567816e-05,3.6066219763597474e-05,-2.4761948225204833e-05,5.757087637903169e-05
-3.691038364195265e-05,3.0171579055604525e-05,-2.895232137234416e-05,5.4364569223253056e-05
-4.0727962186792865e-05,3.647841003839858e-05,-2.8679089155048132e-05,4.956768316333182e-05
-4.034383164253086e-05,4.6603017835877836e-05,-2.512790342734661e-05,4.9065743951359764e-05
-3.7845209590159357e-05,4.748019273392856e-05,-2.2804706532042474e-05,5.304865771904588e-05
-3.490372182568535e-05,3.18503261951264e-05,-1.9243592760176398e-05,5.366239565773867e-05
-3.1003033654997125e-05,1.0271358405589126e-05,-1.711378718027845e-05,5.242693441687152e-05
-2.6962057745549828e-05,-2.0212301024002954e-06,-1.6577590940869413e-05,5.694049832527526e-05
-2.5680852559162304e-05,2.7882981612492586e-07,-1.7203090465045534e-05,6.181707431096584e-05
-2.655264142958913e-05,6.333082183118677e-06,-1.3179022062104195e-05,6.243338430067524e-05
-2.8781703804270364e-05,9.974117347155698e-06,-5.451529432320967e-06,6.0939470131415874e-05
-3.235626718378626e-05,1.579110903549008e-05,-2.633400981721934e-06,6.175455200718716e-05
-3.5500448575476184e-05,2.129605672962498e-05,-7.354655281233136e-06,6.331825716188177e-05
-3.590944470488466e-05,1.9261258785263635e-05,-1.6761436199885793e-05,6.449657666962594e-05
-3.489119262667373e-05,1.1558287951629609e-05,-2.457331538607832e-05,6.790852785343304e-05
-3.569800537661649e-05,4.70763370685745e-06,-2.4799930542940274e-05,7.136022031772882e-05
-3.4070591937052086e-05,1.4606878266931744e-06,-1.6903495634323917e-05,7.580653618788347e-05
-2.916263292718213e-05,1.0311632649973035e-06,-8.424444786214735e-06,8.074082143139094e-05
-2.608691829664167e-05,5.377799880079692e-06,-4.731729859486222e-06,8.283879287773743e-05
-2.4818051315378398e-05,1.3308114830579143e-05,-5.929670351179084e-06,8.001514652278274e-05
-2.1863561414647847e-05,1.802735096134711e-05,-7.152620582928648e-06,7.379531598417088e-05
-1.9954000890720636e-05,2.0623965610866435e-05,-3.227992010579328e-06,6.871286313980818e-05
-1.946658085216768e-05,2.7343172405380756e-05,7.089644896041136e-06,6.933091935934499e-05
-1.770710150594823e-05,3.5472952731652185e-05,1.3716679859498981e-05,6.9796820753254e-05
-1.5677293049520813e-05,3.598894181777723e-05,8.50545347930165e-06,6.767026934539899e-05
-1.3523459529096726e-05,3.265829218435101e-05,-9.892208936435054e-07,6.644511449849233e-05
-1.6383564798161387e-05,2.3075759600033052e-05,-6.68653410684783e-06,6.953101546969265e-05
-2.080319245578721e-05,1.1168084711243864e-05,-1.0887419193750247e-05,7.10895037627779e-05
-2.599719664431177e-05,1.0192808076681104e-05,-1.5703513781772926e-05,6.572079291800037e-05
-3.227642810088582e-05,1.2522858014563099e-05,-1.7304797438555397e-05,6.236535409698263e-05
-3.3684016671031713e-05,1.971727942873258e-05,-1.46232459883322e-05,6.316526560112834e-05
-3.0611539841629565e-05,2.491626946721226e-05,-8.694692041899543e-06,6.388579640770331e-05
-2.4047862098086625e-05,2.4802076950436458e-05,-6.081402716517914e-06,6.501792086055502e-05
-2.1731597371399403e-05,2.4890279746614397e-05,-9.21774062589975e-06,6.347220187308267e-05
-2.6500907551962882e-05,2.5198996809194796e-05,-1.3659314390679356e-05,5.8868441556114703e-05
-3.404032395337708e-05,3.1194547773338854e-05,-1.497314588050358e-05,5.489006434800103e-05
-3.71249952877406e-05,3.6025438021169975e-05,-1.2644883099710569e-05,5.332548971637152e-05
-3.560695768101141e-05,3.371329148649238e-05,-1.2065514056303073e-05,5.612990935333073e-05
-3.055672277696431e-05,2.403666076133959e-05,-1.5751442333566956e-05,6.0707312513841316e-05
-2.3506689103669487e-05,1.5307683497667313e-05,-2.0501027393038385e-05,6.000213397783227e-05
-2.099771700159181e-05,1.1407401871110778e-05,-2.117661279044114e-05,5.6176126236096025e-05
-2.2837801225250587e-05,1.4560687304765452e-05,-1.7852100427262485e-05,5.7833054597722366e-05
-2.316382779099513e-05,2.0817342374357395e-05,-1.557153336761985e-05,6.324158312054351e-05
-1.8196153177996166e-05,2.1204839868005365e-05,-1.7022934116539545e-05,6.709862645948306e-05
-1.2439149941201322e-05,1.6689797121216543e-05,-1.824111859605182e-05,6.648971611866727e-05
-1.0839498827408534e-05,1.5035159776743967e-05,-1.6287131074932404e-05,6.401091377483681e-05
-1.2848349797422998e-05,2.0463148757698946e-05,-1.3335141375137027e-05,6.094715718063526e-05
-1.3707975085708313e-05,3.0180859539541416e-05,-1.0384396773588378e-05,5.825712651130743e-05
-1.3378592484514229e-05,4.139960583415814e-05,-5.533416242542444e-06,6.224046956049278e-05
-1.2923159374622628e-05,4.704434104496613e-05,-1.5400272559418227e-06,6.724944978486747e-05
-1.4316553460957948e-05,4.809088204638101e-05,-1.632434418752382e-06,6.600917549803853e-05
-1.9839024389511906e-05,4.603269189829007e-05,4.6978018986010284e-07,6.0936956288060173e-05
-2.044588291028049e-05,4.3303480197209865e-05,3.1820272852201015e-06,5.711891208193265e-05
-1.373888153466396e-05,5.5233733291970566e-05,4.0426166947327147e-07,5.868342850590125e-05
-1.0122610547114164e-05,6.674338510492817e-05,2.572866009131758e-08,6.440003198804334e-05
-1.0426272638142109e-05,6.325705180643126e-05,2.876618282243726e-06,6.793435022700578e-05
-1.5049021385493688e-05,4.8525278543820605e-05,4.650392384064617e-06,6.632267468376085e-05
-2.335742647119332e-05,2.7329104341333732e-05,3.715794719028054e-06,6.12468138569966e-05
-3.0023782528587617e-05,8.940683983382769e-06,-2.78333573078271e-06,5.390857404563576e-05
-3.0118375434540212e-05,-6.672346898994874e-06,-1.1455635103629902e-05,5.087957833893597e-05
-2.7411308110458776e-05,-1.2645038623304572e-05,-1.6250940461759456e-05,5.3016261517768726e-05
-2.6561050617601722e-05,-8.77071033755783e-06,-1.572740075062029e-05,5.6940527429105714e-05
-2.4851244234014302e-05,-4.87636384605139e-07,-1.3111452062730677e-05,6.137186574051157e-05
-2.1257939806673676e-05,8.377412996196654e-06,-8.980514394352213e-06,6.449641659855843e-05
-1.8612781786941923e-05,1.3603843399323523e-05,-4.749567779072095e-06,6.642737571382895e-05
-1.9654795323731378e-05,1.663658804318402e-05,-2.437709099467611e-06,6.702428072458133e-05
-2.2670643375022337e-05,2.070656410069205e-05,-2.507744056856609e-06,6.551605474669486e-05
-2.4258461053250358e-05,1.99061214516405e-05,-5.18951583217131e-06,6.617894541705027e-05
-2.2437581719714217e-05,1.6558527931920253e-05,-8.117185643641278e-06,6.863656744826585e-05
-1.9416524082771502e-05,2.0105389921809547e-05,-8.756791430641897e-06,6.490950909210369e-05
-1.836617047956679e-05,2.7724556275643408e-05,-7.424559498758754e-06,5.917050293646753e-05
-1.8782458937494084e-05,3.088729499722831e-05,-5.377969500841573e-06,6.03691914875526e-05
-1.8335285858483985e-05,2.8446140277083032e-05,-3.982994257967221e-06,6.312557525234297e-05
-2.084959669446107e-05,2.3534448700957e-05,-3.4998961382370908e-06,5.971168866381049e-05
-2.72602956101764e-05,1.7420044969185255e-05,-3.199580078216968e-06,5.623704782919958e-05
-3.309430030640215e-05,1.6160109225893393e-05,-4.99636507811374e-06,5.703995338990353e-05
-3.2581032428424805e-05,2.0984352886443958e-05,-5.225573659117799e-06,5.777036494691856e-05
-2.8489839678513817e-05,2.2797003111918457e-05,-3.877913513861131e-06,5.752011566073634e-05
-2.60719534708187e-05,2.097027754643932e-05,-7.895691851445008e-06,5.512282587005757e-05
-2.0208450223435648e-05,1.6958654668997042e-05,-1.2839454029744957e-05,5.4949028708506376e-05
-1.3033633877057582e-05,1.8494678442948498e-05,-1.2750927453453187e-05,6.239804497454315e-05
-1.1096359230577946e-05,2.5775520043680444e-05,-1.1639037438726518e-05,6.936219142517075e-05
-1.1669782907119952e-05,2.8676180590991862e-05,-9.842824510997161e-06,7.3407863965258e-05
-1.3457437489705626e-05,2.7401667466619983e-05,-6.507893886009697e-06,7.612133777001873e-05
-1.6869160390342586e-05,2.617079735500738e-05,-7.248921519931173e-06,7.53790809540078e-05
-1.9016461010323837e-05,2.8148710043751635e-05,-1.0058799489343073e-05,7.383665797533467e-05
-1.9695833543664776e-05,3.1830943044042215e-05,-1.0764746548375115e-05,7.311673107324168e-05
-2.2644751879852265e-05,3.5684268368640915e-05,-5.844231509399833e-06,7.27921724319458e-05
-2.680474608496297e-05,3.3578151487745345e-05,-2.0202965060889255e-06,6.963562918826938e-05
-2.906870940933004e-05,3.423670932534151e-05,-6.5419003476563375e-06,6.474636029452085e-05
-2.9600534617202356e-05,3.961184847867116e-05,-1.2168226021458395e-05,6.37077828287147e-05
-2.898915408877656e-05,4.132687899982557e-05,-1.1856872333737556e-05,6.342865526676178e-05
-3.084590207436122e-05,3.878966163028963e-05,-5.683964900526917e-06,6.295591447269544e-05
-3.456234480836429e-05,3.930723687517457e-05,2.557565267125028e-06,6.253635365283117e-05
-3.619645940489136e-05,4.4681961298920214e-05,9.51275069382973e-06,5.963255898677744e-05
-3.492449832265265e-05,5.157507985131815e-05,1.28572255562176e-05,5.5251395679078996e-05
-3.168557304888964e-05,5.6802226026775315e-05,1.0218470379186329e-05,5.314407098921947e-05
-2.6251509552821517e-05,4.937250560033135e-05,1.4013666316259332e-07,5.132243313710205e-05
-2.231617872894276e-05,2.8309912522672676e-05,-1.4254984307626728e-05,4.747237471747212e-05
-2.2781012376071885e-05,1.240855453943368e-05,-2.483340176695492e-05,4.6655055484734476e-05
-2.417503492324613e-05,8.4268885984784e-06,-2.3810860511730425e-05,4.9284011765848845e-05
-2.4637427486595698e-05,4.6270502025436144e-06,-1.5777732187416404e-05,4.9652528105070814e-05
-2.5174520487780683e-05,2.0491756913543213e-06,-8.488445018883795e-06,4.671753049478866e-05
-2.5504123186692595e-05,7.550890131824417e-06,-1.4178019682731247e-06,4.3633142922772095e-05
-2.2637954316451214e-05,1.5105109014257323e-05,1.1677245311147999e-05,4.416479714564048e-05
-2.2684102077619173e-05,1.667249671299942e-05,2.1160507458262146e-05,4.69339793198742e-05
-2.9020322472206317e-05,1.3428997590381186e-05,1.5404624718939885e-05,4.4468168198363855e-05
-2.971392314066179e-05,1.5512512618442997e-05,4.758673185278894e-06,3.885957266902551e-05
-2.6126539523829706e-05,2.3815242457203567e-05,-5.058583610662026e-06,4.0634695324115455e-05
-2.4837238015607e-05,3.0163064366206527e-05,-1.6033145584515296e-05,4.3495743739185855e-05
-2.3641656298423186e-05,3.8877191400388256e-05,-2.2805907065048814e-05,4.149851156398654e-05
-2.422402030788362e-05,4.645919761969708e-05,-2.2466645532404073e-05,3.742269836948253e-05
-2.6350458938395604e-05,4.458024704945274e-05,-1.9408731532166712e-05,3.0843868444208056e-05
-3.028645551239606e-05,3.232569360989146e-05,-2.0102592316106893e-05,2.83542467514053e-05
-3.2047675631474704e-05,2.099726589221973e-05,-2.174870496673975e-05,2.8213255063747056e-05
-2.7545613193069585e-05,7.893830115790479e-06,-1.9964116290793754e-05,3.050515806535259e-05
-2.4012322683120146e-05,-3.877216386172222e-06,-1.7541704437462613e-05,3.414404272916727e-05
-2.7327623683959246e-05,-1.6940376781349187e-06,-1.792084367480129e-05,3.8309983210638165e-05
-3.216572804376483e-05,1.1460169844212942e-05,-2.067470268229954e-05,4.244974843459204e-05
-3.3450560295023024e-05,2.4527293135179207e-05,-2.1315234334906563e-05,4.5438817323883995e-05
-3.084235868300311e-05,3.122453563264571e-05,-1.9619075828813948e-05,4.6360280975932255e-05
-2.690305518626701e-05,3.0297529519884847e-05,-1.5761655959067866e-05,4.605372669175267e-05
-2.6132802304346114e-05,2.5929011826519854e-05,-1.1139321941300295e-05,4.8137124394997954e-05
-2.8065673177479766e-05,2.085239793814253e-05,-9.926227903633844e-06,5.0028909754473716e-05
-2.873566154448781e-05,1.4357197869685479e-05,-1.398084896209184e-05,5.094587686471641e-05
-2.784455136861652e-05,1.0421921615488827e-05,-1.6274234440061264e-05,5.111426071380265e-05
-2.6734151106211357e-05,1.354734104097588e-05,-1.2784712453139946e-05,5.301106284605339e-05
-2.58365944318939e-05,1.952060301846359e-05,-8.49283878778806e-06,5.5107717344071716e-05
-2.5115374228334986e-05,2.171998130506836e-05,-7.845340405765455e-06,5.3196392400423065e-05
-2.141647564712912e-05,2.873924131563399e-05,-9.065149242815096e-06,4.9865695473272353e-05
-1.9895149307558313e-05,3.7692239857278764e-05,-7.230545634229202e-06,4.822911796509288e-05
-2.3330254407483153e-05,3.7143632653169334e-05,-6.244363703444833e-06,4.3178315536351874e-05
-2.8327747713774443e-05,3.17586564051453e-05,-1.0545061741140671e-05,4.154685666435398e-05
-3.305858263047412e-05,3.515257776598446e-05,-1.6702264474588446e-05,4.4034142774762586e-05
-3.5326222132425755e-05,3.457859929767437e-05,-1.802803853934165e-05,4.559265653369948e-05
-3.5709799703909084e-05,2.6475910999579355e-05,-1.9697879906743765e-05,4.518411515164189e-05
-3.471941454336047e-05,1.5535237253061496e-05,-2.297669925610535e-05,4.22593584517017e-05
-3.3580476156203076e-05,5.984627023281064e-06,-2.3035896447254345e-05,4.4929802243132144e-05
-3.2678100978955626e-05,3.3401092878193595e-06,-2.2323753000819124e-05,5.262561535346322e-05
-2.9452823582687415e-05,4.778893526236061e-06,-1.8526368876337074e-05,5.6779987062327564e-05
-2.3732634872430936e-05,8.458700904157013e-06,-1.2272534149815328e-05,5.560654972214252e-05
-2.0730958567583002e-05,1.0383768312749453e-05,-7.4752238106157165e-06,5.7313533034175634e-05
-2.1868772819289006e-05,9.798582141229417e-06,-7.185635695350356e-06,6.0037968069082126e-05
-2.704715370782651e-05,1.0256692803523038e-05,-9.91436536423862e-06,5.6721542932791635e-05
-3.4230433811899275e-05,1.4767470020160545e-05,-1.2151333976362366e-05,4.9861591833177954e-05
-3.794425356318243e-05,2.1922553059994243e-05,-1.0000538168242201e-05,4.82459545310121e-05
-3.525656211422756e-05,2.7465939638204873e-05,-5.141730525792809e-06,5.3921514336252585e-05
-3.011834814969916e-05,2.5713339709909633e-05,-3.230091579098371e-06,5.8937101130140945e-05
-2.6944946512230672e-05,2.2741582142771222e-05,-6.31715556664858e-06,6.000285429763608e-05
-2.6187502953689545e-05,2.9027951313764788e-05,-1.0152530194318388e-05,6.217558984644711e-05
-2.6623984012985602e-05,4.175711364950985e-05,-1.1595553587540053e-05,6.581246998393908e-05
-2.5364655812154524e-05,4.797602741746232e-05,-1.2414111552061513e-05,6.635887257289141e-05
-2.330077586520929e-05,4.643578358809464e-05,-1.1163844646944199e-05,6.370760820573196e-05
-2.3636463083676063e-05,4.2123418097617105e-05,-8.571043508709408e-06,6.222274532774463e-05
-2.5753775844350457e-05,3.6881014239043e-05,-6.995954663580051e-06,6.16149409324862e-05
-2.640622369654011e-05,3.3345833799103275e-05,-9.707026947580744e-06,5.858769145561382e-05
-2.915573350037448e-05,3.2311450922861695e-05,-1.5301922758226283e-05,5.7128236221615225e-05
-3.4055945434374735e-05,3.373261642991565e-05,-1.968900323845446e-05,5.902656994294375e-05
-3.758764432859607e-05,3.160268533974886e-05,-2.6535693905316293e-05,5.8569585235090926e-05
-3.697767897392623e-05,1.2179376426502131e-05,-3.742579065146856e-05,5.110729034640826e-05
-2.937672434200067e-05,-1.531575071567204e-05,-4.4154043280286714e-05,4.970952431904152e-05
-2.0072353436262347e-05,-1.5893325326032937e-05,-3.836819450953044e-05,5.80916712351609e-05
-1.2304554729780648e-05,6.785735422454309e-06,-2.4542629034840502e-05,6.226394179975614e-05
-1.1138025911350269e-05,3.537347220117226e-05,-1.3129910257703159e-05,6.311070319497958e-05
-1.4392088814929593e-05,5.967025208519772e-05,-1.0597861546557397e-05,6.459568248828873e-05
-1.9568395146052353e-05,5.0425471272319555e-05,-1.615656765352469e-05,6.429466156987473e-05
-2.510400918254163e-05,2.352293631702196e-05,-1.795576827134937e-05,6.252337334444746e-05
-2.220615351689048e-05,1.0671601557987742e-05,-1.3391128049988765e-05,6.186525570228696e-05
-1.7143056538770907e-05,1.4279714378062636e-05,-4.790741058968706e-06,6.665803084615618e-05
-1.535837145638652e-05,2.4981041860883124e-05,5.758833594882162e-06,7.278901466634125e-05
-1.8241784346173517e-05,3.601187199819833e-05,1.4180506695993245e-05,7.339068542933092e-05
-2.2381340386345983e-05,4.004632864962332e-05,1.698733467492275e-05,6.975530413910747e-05
-2.6597834221320227e-05,3.627645128290169e-05,1.1476317013148218e-05,6.5840948082041e-05
-2.9934042686363682e-05,3.423087400733493e-05,-9.534141298672694e-08,6.533393025165424e-05
-3.0616716685472056e-05,3.029044091817923e-05,-1.0503407793294173e-05,6.772887718398124e-05
-2.9959392122691497e-05,1.5767127479193732e-05,-1.6049387340899557e-05,6.864895112812519e-05
-3.189540802850388e-05,1.912530933623202e-06,-1.7916634533321485e-05,6.830435449955985e-05
-3.632520019891672e-05,2.4247954115708126e-06,-1.735606201691553e-05,6.940709863556549e-05
-3.685102274175733e-05,7.65354616305558e-06,-1.4768262190045789e-05,6.901905726408586e-05
-3.4803972084773704e-05,1.0608493539621122e-05,-1.1336532224959228e-05,6.584446964552626e-05
-3.3834174246294424e-05,1.661145688558463e-05,-9.566828339302447e-06,6.457798735937104e-05
-3.43595675076358e-05,2.390456029388588e-05,-8.687123226991389e-06,6.660060898866504e-05
-3.5040327929891646e-05,1.9284090740256943e-05,-7.981859198480379e-06,6.748094165232033e-05
-3.125375951640308e-05,9.658761882747058e-06,-4.966341293766163e-06,6.561702321050689e-05
-2.20942802116042e-05,1.3443649550026748e-05,1.8786106465995545e-06,6.342990673147142e-05
-1.6670546756358817e-05,1.7852697055786848e-05,6.3169536588247865e-06,6.76407216815278e-05
-2.0004155885544606e-05,4.0199797695095185e-06,-2.3076170236890903e-06,7.200496474979445e-05
-2.925099033745937e-05,-5.1042757149843965e-06,-1.5202209397102706e-05,6.71117304591462e-05
-3.539190220180899e-05,2.1353895135689527e-05,-4.386856744531542e-06,6.204507371876389e-05
-3.348326208651997e-05,5.022425466449931e-05,1.8256378098158166e-05,6.03791449975688e-05
-2.5910621843650006e-05,4.338451981311664e-05,2.1113233742653392e-05,6.3794941524975e-05
-2.1256595573504455e-05,3.0493931262753904e-05,9.204759408021346e-06,7.156775973271579e-05
-2.2757729311706498e-05,2.3182446966529824e-05,-4.205027380521642e-06,7.477651524823159e-05
-2.9702834581257775e-05,1.5341725884354673e-05,-1.2827420505345799e-05,7.406232907669619e-05
-3.486935020191595e-05,1.4039778761798516e-05,-1.8302802345715463e-05,6.960222526686266e-05
-3.3426578738726676e-05,1.9385752239031717e-05,-1.9077768229180947e-05,6.378744001267478e-05
-3.1018818845041096e-05,2.388363645877689e-05,-1.641126254980918e-05,6.135316652944311e-05
-3.148538962705061e-05,2.2039053874323145e-05,-1.5302020983654074e-05,6.037551793269813e-05
-3.208089401596226e-05,2.0970506739104167e-05,-1.559591510158498e-05,6.159649637993425e-05
-2.9622064175782725e-05,2.362880877626594e-05,-1.4372199984791223e-05,6.447488703997806e-05
-2.498170579201542e-05,2.4283102902700193e-05,-1.1964511031692382e-05,6.318314262898639e-05
-2.2015892682247795e-05,2.3712853362667374e-05,-1.1966345482505858e-05,5.799944847240113e-05
-2.1453815861605108e-05,2.628844049468171e-05,-1.3767323252977803e-05,5.328263432602398e-05
-1.8944916519103572e-05,3.164798181387596e-05,-1.4671755707240663e-05,4.952000017510727e-05
-1.5320751117542386e-05,3.7090580008225515e-05,-1.313911889155861e-05,4.58445429103449e-05
-1.7174865206470713e-05,3.785582885029726e-05,-1.2409381270117592e-05,4.698049815488048e-05
-2.5766148610273376e-05,3.57255557901226e-05,-1.4254038433136884e-05,5.418333603302017e-05
-2.9960960091557354e-05,3.326479782117531e-05,-1.6886213416000828e-05,6.062310058041476e-05
-2.510664489818737e-05,2.8071939595974982e-05,-1.965759292943403e-05,6.131388363428414e-05
-2.0459143343032338e-05,2.295355989190284e-05,-2.604783367132768e-05,5.940459595876746e-05
-2.544904054957442e-05,2.6008139684563503e-05,-3.164535519317724e-05,5.7747107348404825e-05
-3.414643288124353e-05,2.9151196940802038e-05,-3.112920967396349e-05,5.6305518228327855e-05
-3.534253119141795e-05,2.9934577469248325e-05,-2.4943361495388672e-05,5.8617508329916745e-05
-3.142412970191799e-05,3.044183540623635e-05,-1.7583510270924307e-05,6.135264993645251e-05
-2.989775748574175e-05,1.8254679162055254e-05,-1.9595816411310807e-05,6.092775583965704e-05
-3.041218951693736e-05,-1.1252927833993454e-06,-2.481814044585917e-05,6.006727198837325e-05
-2.851228964573238e-05,-9.236172445525881e-06,-2.231721555290278e-05,5.800561120850034e-05
-2.3428396161762066e-05,-5.583541678788606e-06,-6.297517302300548e-06,5.709486867999658e-05
-2.0327832316979766e-05,1.3445012882584706e-05,2.3730844986857846e-05,5.8638888731366023e-05
-1.8592345440993086e-05,3.72182548744604e-05,4.224763688398525e-05,5.8416702813701704e-05
-1.7144708181149326e-05,4.700410136138089e-05,3.409499186091125e-05,5.93523436691612e-05
-1.3376307833823375e-05,5.258206874714233e-05,1.3286256034916732e-05,6.0234458942431957e-05
-9.51236052060267e-06,5.983384471619502e-05,-2.0160016447334783e-06,6.080999082769267e-05
-7.129061486921273e-06,6.825564196333289e-05,-7.886037565185688e-06,5.904656063648872e-05
-7.4911567935487255e-06,7.366124191321433e-05,-4.13178668168257e-06,5.7949426263803616e-05
-1.2887408956885338e-05,7.286164327524602e-05,4.04083857574733e-06,6.182651122799143e-05
-1.7891868992592208e-05,6.75863993819803e-05,1.0312873200746253e-05,6.357482925523072e-05
-2.2375801563612185e-05,5.617081478703767e-05,1.1411038940423168e-05,6.016249972162768e-05
-2.439785748720169e-05,4.576201536110602e-05,6.997496257099556e-06,5.3806292271474376e-05
-2.3822613002266735e-05,4.129446097067557e-05,6.781201022931782e-07,4.841199188376777e-05
-2.2835291019873694e-05,3.719248707056977e-05,-4.901864940620726e-06,4.597118459059857e-05
-2.356387813051697e-05,3.05649773508776e-05,-9.029002285387833e-06,4.749580330098979e-05
-2.3291786419576965e-05,2.3610860807821155e-05,-1.1343984624545556e-05,5.2376639359863475e-05
-2.1894924429943785e-05,1.9197288565919735e-05,-1.2658160812861752e-05,5.790585419163108e-05
-2.295777630934026e-05,1.9463745047687553e-05,-1.6363752365577966e-05,5.9771839005406946e-05
-2.7588053853833117e-05,1.9355047697899863e-05,-1.8881200958276168e-05,5.87368049309589e-05
-3.109386670985259e-05,1.9582263121264987e-05,-1.8316895875614136e-05,5.792883166577667e-05
-2.9984665161464363e-05,2.2602975150221027e-05,-1.6105384929687716e-05,5.7755361922318116e-05
-2.6144985895371065e-05,2.072300048894249e-05,-1.3748112905886956e-05,5.9447993407957256e-05
-2.6974592401529662e-05,1.859796975622885e-05,-1.364742001896957e-05,6.271629536058754e-05
-3.298970477771945e-05,2.64538248302415e-05,-1.6356614651158452e-05,6.4079649746418e-05
-3.746495713130571e-05,2.9591796192107722e-05,-1.5382243873318657e-05,6.0413090977817774e-05
-3.777554593398236e-05,2.2455145881394856e-05,-1.0998951438523363e-05,6.003214366501197e-05
-3.473301694612019e-05,1.914013409987092e-05,-9.281491657020524e-06,6.82424142723903e-05
-3.182271757395938e-05,2.3076951038092375e-05,-1.3396321264735889e-05,7.145364361349493e-05
-2.6839994461624883e-05,3.046133315365296e-05,-1.6724199667805806e-05,6.764326826669276e-05
-2.549800046836026e-05,3.577481038519181e-05,-1.3548544302466325e-05,6.341600237647071e-05
-2.5602415917092003e-05,2.993166708620265e-05,-8.42505778564373e-06,5.9882495406782255e-05
-2.584871072031092e-05,1.7478190784459002e-05,-8.261384209617972e-06,5.5633470765314996e-05
-2.8734077204717323e-05,1.5845524103497155e-05,-1.084918221749831e-05,5.5111071560531855e-05
-3.0078548661549576e-05,2.0071602193638682e-05,-1.324941149505321e-05,5.8199068007525057e-05
-2.946997483377345e-05,2.1365101929404773e-05,-1.5641899153706618e-05,6.02394065936096e-05
-2.8193218895466998e-05,1.829609573178459e-05,-1.6560110452701338e-05,6.27452100161463e-05
-2.7011474230675958e-05,1.7308911992586218e-05,-1.6045882148318924e-05,6.278037471929565e-05
-2.760135794233065e-05,2.225280877610203e-05,-1.5047625311126467e-05,5.954473454039544e-05
-2.9228929633973166e-05,3.164903318975121e-05,-1.681644243944902e-05,5.746435999753885e-05
-3.106356234638952e-05,3.5813223803415895e-05,-2.0557688912958838e-05,5.90988238400314e-05
-3.395490421098657e-05,3.250870213378221e-05,-2.3621059881406836e-05,6.057221253286116e-05
-3.7083736970089376e-05,2.8243444830877706e-05,-2.3935388526297174e-05,6.0288086388027295e-05
-3.730881871888414e-05,2.166581543860957e-05,-2.0927154764649458e-05,5.9337689890526235e-05
-3.318488234071992e-05,1.4037445907888468e-05,-1.3949962522019632e-05,5.783377491752617e-05
-3.065130294999108e-05,6.659553491772385e-06,-7.30615420252434e-06,5.521985440282151e-05
-3.144440415780991e-05,-1.5348339275078615e-06,-5.583402980846586e-06,5.297292227623984e-05
-2.9823371733073145e-05,-4.831413662031991e-06,-5.065657205705065e-06,5.265377330943011e-05
-2.380680962232873e-05,2.2409813027479686e-06,-1.2845581522924476e-06,5.641307507175952e-05
-1.8696395272854716e-05,1.436909496987937e-05,-2.2250362974318705e-07,6.132829730631784e-05
-1.771925963112153e-05,2.4184455469367094e-05,-1.6226641719185864e-06,6.022260640747845e-05
-1.941416849149391e-05,2.4153372578439303e-05,-1.6806562541660242e-07,5.561566649703309e-05
-1.808318484108895e-05,1.2081698514521122e-05,3.3025385164364707e-06,5.519227124750614e-05
-1.6715435776859522e-05,7.879227268858813e-06,4.022578195872484e-06,5.777504338766448e-05
-1.7145071979030035e-05,1.542040081403684e-05,-1.3683535371455946e-06,5.7962450227933004e-05
-1.605632496648468e-05,1.4591322724299971e-05,-6.827378001617035e-06,5.783729284303263e-05
-1.7644877516431734e-05,1.1244094821449835e-05,-6.905869668116793e-06,5.8722722314996645e-05
-2.41433172050165e-05,8.810201507003512e-06,-3.7936151784379035e-06,5.914636130910367e-05
-3.118883978459053e-05,8.202778190025128e-06,-2.306527221662691e-06,5.996289837639779e-05
-3.1286926969187334e-05,5.4422325774794444e-06,-1.1434378848207416e-06,5.7720888435142115e-05
-2.7327443604008295e-05,6.904695055709453e-06,-8.128830586429103e-07,5.4194635595194995e-05
-2.6292695110896602e-05,1.3809568372380454e-05,-1.4604660236727796e-06,5.305629383656196e-05
-2.718615360208787e-05,1.911055551317986e-05,-3.6263020319893258e-06,5.356095789466053e-05
-2.9327593438210897e-05,2.1782572730444372e-05,-8.558700756111648e-06,5.5458622227888554e-05
-3.0161021641106345e-05,2.0790204871445894e-05,-1.2507365681813098e-05,5.703992064809427e-05
-2.890520954679232e-05,1.834735849115532e-05,-1.3943830708740279e-05,5.8020526921609417e-05
-2.6088819140568376e-05,2.2821326638222672e-05,-1.5037605407997034e-05,5.968255936750211e-05
-2.3638907805434428e-05,3.4298631362617016e-05,-1.8223736333311535e-05,6.198722257977352e-05
-2.080329977616202e-05,3.748627204913646e-05,-2.197438880102709e-05,6.209703133208677e-05
-1.8002785509452224e-05,3.105494033661671e-05,-2.340782157261856e-05,6.005242539686151e-05
-1.8189017282566056e-05,2.3988273824215867e-05,-2.1407044187071733e-05,6.153267895570025e-05
-2.0774830773007125e-05,2.5926714442903176e-05,-1.897187394206412e-05,6.581044726772234e-05
-2.3908814910100773e-05,3.558085882104933e-05,-1.987347968679387e-05,6.603555812034756e-05
-2.6693711333791725e-05,4.8783374950289726e-05,-2.143328129022848e-05,6.422234582714736e-05
-2.757774927886203e-05,5.375992623157799e-05,-2.1729372747358866e-05,6.424044840969145e-05
-2.8591897716978565e-05,4.716207695310004e-05,-2.0343846699688584e-05,6.524127820739523e-05
-3.108763849013485e-05,3.738129817065783e-05,-1.6721563952160068e-05,6.382321589626372e-05
-2.995284194184933e-05,3.4340660931775346e-05,-1.1710985745594371e-05,5.937883906881325e-05
-2.4511437004548497e-05,3.5703455068869516e-05,-3.6826866107730893e-06,5.6960088841151446e-05
-1.579250965733081e-05,3.0037836040719412e-05,-2.4492917418683646e-06,5.9168054576730356e-05
-1.1757924767152872e-05,3.0150331440381706e-05,-1.070049711415777e-05,5.68694194953423e-05
-1.1330775123497006e-05,3.471141462796368e-05,-1.4974686564528383e-05,5.124574454384856e-05
-1.0917057807091624e-05,3.167297472828068e-05,-1.2171211892564315e-05,5.06104261148721e-05
-1.1209263902856037e-05,2.3855265681049787e-05,-8.236009307438508e-06,5.345154568203725e-05
-1.378068009216804e-05,2.0350384147604927e-05,-7.0276655605994165e-06,5.67332717764657e-05
-1.726885966490954e-05,2.3586566385347396e-05,-9.133029379881918e-06,5.5636497563682497e-05
-1.8293225366505794e-05,2.2209567760000937e-05,-1.127015730162384e-05,5.155206235940568e-05
-2.0370960555737838e-05,2.2376656488631852e-05,-1.3537819540943019e-05,5.0334067054791376e-05
-2.2662568881059997e-05,2.5492108761682175e-05,-1.722878369037062e-05,5.442857218440622e-05
-2.681964178918861e-05,3.022693817911204e-05,-2.1146441213204525e-05,5.774323653895408e-05
-3.062932228203863e-05,3.0162458642735146e-05,-2.3611568394699134e-05,5.5775912187527865e-05
-3.218416168238036e-05,2.384536128374748e-05,-2.0562771169352345e-05,5.2609342674259096e-05
-3.140730404993519e-05,1.6173386029549874e-05,-1.3589659829449374e-05,5.2232746384106576e-05
-2.8748005206580274e-05,1.1737498425645754e-05,-7.693019142607227e-06,5.407350909081288e-05
-2.764395139820408e-05,9.503749424766283e-06,-6.257544555410277e-06,5.566250183619559e-05
-2.8456986910896376e-05,9.292102731706109e-06,-6.514658252854133e-06,5.71817290619947e-05
-2.925502667494584e-05,1.680787136137951e-05,-5.384823452914134e-06,5.7940156693803146e-05
-2.772341395029798e-05,2.8881864636787213e-05,-4.818259185412899e-06,5.806576882605441e-05
-2.3047516151564196e-05,3.893584289471619e-05,-5.966435310256202e-06,5.925603909417987e-05
-1.8781791368382983e-05,4.3642659875331447e-05,-6.334787485684501e-06,6.0865851992275566e-05
-1.9760156646952964e-05,3.878055576933548e-05,-6.52874859952135e-06,6.06134271947667e-05
-2.1753399778390303e-05,2.4079068680293858e-05,-4.370567239675438e-06,6.147574458736926e-05
-2.1878164261579514e-05,1.930218786583282e-05,1.2775751656590728e-06,6.6078981035389e-05
-2.2058655304135755e-05,2.6053474357468076e-05,5.265945219434798e-06,6.842328002676368e-05
-2.4704904717509635e-05,3.2418742193840444e-05,3.4098420655936934e-06,6.440577271860093e-05
-2.745380152191501e-05,3.6113775422563776e-05,-2.6124916985281743e-06,6.075294004403986e-05
-2.9025757612544112e-05,3.5276047128718346e-05,-4.2324300011387095e-06,6.105527427280322e-05
-3.1017469154903665e-05,2.70747987087816e-05,-3.0261828669608803e-06,6.223916716407984e-05
-2.8393811589921825e-05,2.2273079594015144e-05,-3.3181220260303235e-06,6.176259194035083e-05
-2.400272569502704e-05,2.303940345882438e-05,-2.0911711544613354e-06,6.046377166057937e-05
-2.033008604485076e-05,2.73640744126169e-05,-2.735165935519035e-06,5.927721940679476e-05
-1.6898135072551668e-05,3.3242107747355476e-05,-7.146024927351391e-06,5.99538761889562e-05
-1.789112684491556e-05,3.58176366717089e-05,-9.643533303460572e-06,6.419426790671423e-05
-2.064259933831636e-05,3.367087265360169e-05,-1.1338448530295864e-05,6.955113349249586e-05
-2.315675374120474e-05,2.883521119656507e-05,-1.604002682142891e-05,7.556302443845198e-05
-2.5744126105564646e-05,2.3094386051525362e-05,-2.247075826744549e-05,7.679848204134032e-05
-3.1453735573450103e-05,1.6591216990491375e-05,-2.543514347053133e-05,7.179252133937553e-05
-3.7403104215627536e-05,6.514210781460861e-06,-2.324397246411536e-05,6.700809899484739e-05
-4.069232090841979e-05,-6.464023499574978e-06,-1.8425496818963438e-05,6.778373790439218e-05
-4.0673548937775195e-05,-1.178381990030175e-05,-1.245074236067012e-05,6.947014480829239e-05
-3.641886723926291e-05,-5.199676252232166e-06,-6.70564804750029e-06,6.852523802081123e-05
-3.1370986107503995e-05,3.3610444916121196e-06,-3.7275240174494684e-06,6.70597146381624e-05
-2.9697068384848535e-05,8.550569873477798e-06,-5.065998720965581e-06,6.453593960031867e-05
-3.327076410641894e-05,8.728705324756447e-06,-1.03681459222571e-05,5.879116361029446e-05
-3.751905751414597e-05,3.2569234917900758e-06,-1.806580439733807e-05,5.373788008000702e-05
-4.0189501305576414e-05,6.504471457446925e-06,-2.3300379325519316e-05,5.283257269184105e-05
-3.9542544982396066e-05,2.670882167876698e-05,-2.4578535885666497e-05,5.473073906614445e-05
-3.5466611734591424e-05,4.5723383664153516e-05,-2.581870103313122e-05,5.570059875026345e-05
-2.921191116911359e-05,4.8752517614047974e-05,-2.5321012799395248e-05,5.299511758494191e-05
-2.532063444959931e-05,4.077286212122999e-05,-1.827272353693843e-05,5.000902456231415e-05
-2.790652069961652e-05,2.579300598881673e-05,-1.1109949809906539e-05,4.582397741614841e-05
-3.221816587029025e-05,9.148974640993401e-06,-6.767445484001655e-06,4.13178677263204e-05
-3.06730653392151e-05,-3.4849408621084876e-06,-1.3709262702832348e-06,3.721232133102603e-05
-2.4367864170926623e-05,-5.066315679869149e-06,1.0793141882459167e-05,3.52485258190427e-05
-2.172042877646163e-05,4.734565209218999e-06,2.54078368016053e-05,3.7459121813299134e-05
-2.304103327332996e-05,1.5607598470523953e-05,3.09503884636797e-05,3.823773658950813e-05
-2.6489335141377524e-05,2.238623346784152e-05,2.5304594601038843e-05,3.870111322612502e-05
-3.061234747292474e-05,2.3055195924825966e-05,1.1772079233196564e-05,4.107704444322735e-05
-3.0264835004345514e-05,1.8846623788704164e-05,-6.448005365200515e-07,3.9315222238656133e-05
-2.6213994715362787e-05,1.8463006199453957e-05,-7.660624760319479e-06,3.647573248599656e-05
-2.0209212379995733e-05,1.947271630342584e-05,-1.0111285519087687e-05,3.529193782014772e-05
-1.657863504078705e-05,2.167120146623347e-05,-1.3086050785204861e-05,3.548775930539705e-05
-1.675506791798398e-05,2.4050077627180144e-05,-1.4480163372354582e-05,3.76850257453043e-05
-2.056004996120464e-05,2.703108111745678e-05,-1.3142059287929442e-05,4.3730626202886924e-05
-2.5323415684397332e-05,2.7916883482248522e-05,-1.1535069461388048e-05,5.1865070417989045e-05
-2.6502890250412747e-05,2.8056751034455374e-05,-1.205768967338372e-05,5.6079770729411393e-05
-2.55960021604551e-05,3.779585676966235e-05,-1.2633773621928412e-05,5.546599641093053e-05
-2.49977529165335e-05,5.268155291560106e-05,-1.2929795957461465e-05,5.498871178133413e-05
-2.2463676941697486e-05,5.537118704523891e-05,-1.5971232642186806e-05,5.539877383853309e-05
-1.636095294088591e-05,4.750347579829395e-05,-2.0673962353612296e-05,5.373253225116059e-05
-1.2851606697950047e-05,4.3968597310595214e-05,-2.3652022719033994e-05,5.0356284191366285e-05
-1.4850031220703386e-05,4.1694482206366956e-05,-2.3763264834997244e-05,5.015192073187791e-05
-1.804493513191119e-05,3.821154678007588e-05,-2.2463451387011446e-05,5.340238203643821e-05
-2.069886431854684e-05,3.4421944292262197e-05,-1.611737570783589e-05,5.367131234379485e-05
-2.4535453121643513e-05,2.9337297746678814e-05,-7.561097390862415e-06,5.1367962441872805e-05
-2.5766901671886444e-05,2.4841199774527922e-05,-5.1472125051077455e-06,4.729756619781256e-05
-2.5085621018661186e-05,2.225371281383559e-05,-1.2606362361111678e-05,4.190690742689185e-05
-2.698561002034694e-05,1.919373607961461e-05,-2.1044403183623217e-05,3.889101935783401e-05
-3.2912623282754794e-05,1.817596421460621e-05,-2.4380535251111723e-05,4.127993815927766e-05
-3.381578062544577e-05,2.3073514967109077e-05,-2.3050301024341024e-05,4.59730472357478e-05
-2.7864656658493914e-05,2.6493895347812213e-05,-2.2928103135200217e-05,5.122632865095511e-05
-2.695620605663862e-05,1.7906455468619242e-05,-2.557103471190203e-05,5.5687985877739266e-05
-2.9535693101934157e-05,7.059706604195526e-06,-2.811659942381084e-05,5.9946487453999e-05
-3.0986822821432725e-05,4.070874638273381e-06,-2.996502189489547e-05,6.110191316111013e-05
-3.323036071378738e-05,5.8871951296168845e-06,-2.6571906346362084e-05,5.583378515439108e-05
-3.7822996091563255e-05,1.3705915989703499e-05,-1.5844050722080283e-05,4.870032353210263e-05
-3.86332867492456e-05,2.350736758671701e-05,-3.5968573683931027e-06,4.524266114458442e-05
-3.2106916478369385e-05,2.8188340365886688e-05,7.383864044641086e-07,4.4272914237808436e-05
-2.5554858439136297e-05,3.11406038235873e-05,-3.3929386518138926e-06,4.669460031436756e-05
-2.1709241991629824e-05,3.166085298289545e-05,-8.670389433973469e-06,5.4168867791304365e-05
-2.1155419744900428e-05,2.7765732738771476e-05,-1.0286927135894075e-05,5.955878441454843e-05
-2.3250735466717742e-05,1.9755756511585787e-05,-7.943625860207248e-06,6.067536014597863e-05
-2.448622944939416e-05,1.5589284885209054e-05,-4.96405664307531e-06,5.823378887725994e-05
-2.3331105694524013e-05,1.69958257174585e-05,-1.5484010873478837e-06,5.7668588851811364e-05
-2.0856035916949622e-05,1.3294111340655945e-05,2.7117075660498813e-06,5.857691212440841e-05
-2.014114761550445e-05,5.609762752101233e-07,7.433440714521566e-06,5.894024798180908e-05
-2.1780420865979977e-05,-1.0670260053302627e-05,9.878505807137117e-06,5.9717574913520366e-05
-2.3576201783725992e-05,-1.3076158211333677e-05,9.155405678029638e-06,6.062413376639597e-05
-2.503073301340919e-05,-8.511022315360606e-06,8.610797522123903e-06,6.346112058963627e-05
-2.6619685741025023e-05,3.4967483770742547e-06,6.145670795376645e-06,6.710804154863581e-05
-2.7060203137807548e-05,2.0686909920186736e-05,-1.4081985000302666e-07,6.963325722608715e-05
-2.725721242313739e-05,2.9568029276560992e-05,-5.946985766058788e-06,7.067100523272529e-05
-3.077226574532688e-05,2.356108780077193e-05,-8.13188853499014e-06,7.112210005288944e-05
-3.575373557396233e-05,1.9167975551681593e-05,-8.655922101752367e-06,6.900359585415572e-05
-3.64816005458124e-05,2.356190816499293e-05,-8.669222552271094e-06,6.406100874301046e-05
-3.368567195138894e-05,2.7355961719877087e-05,-1.0880426088988315e-05,6.226273399079219e-05
-2.8167238269816153e-05,2.7675543606164865e-05,-1.71662923094118e-05,6.29062851658091e-05
-2.210278034908697e-05,2.1128969819983467e-05,-2.14896190300351e-05,6.352439959300682e-05
-2.1577141524176113e-05,1.3990048501000274e-05,-1.9541614165063947e-05,6.870206561870873e-05
-2.3889075237093493e-05,2.2626849386142567e-05,-1.7816284525906667e-05,7.367145735770464e-05
-2.7043823138228618e-05,3.5561279219109565e-05,-1.2249386600160506e-05,7.224275032058358e-05
-3.0596114811487496e-05,4.187793820165098e-05,-2.3282382244360633e-06,6.750528700649738e-05
-3.219411883037537e-05,4.6344870497705415e-05,-1.133069105208051e-07,6.164600199554116e-05
-3.128631578874774e-05,4.7959645598893985e-05,-2.320038902325905e-06,5.6931396102299914e-05
-2.8243899578228593e-05,4.484835881157778e-05,-3.229090225431719e-06,5.761885768151842e-05
-2.513719846319873e-05,4.245654781698249e-05,-2.578093926786096e-06,5.6264514569193125e-05
-2.180756018788088e-05,4.0737944800639525e-05,-3.073374273299123e-06,5.353090091375634e-05
-1.828481981647201e-05,4.179505413048901e-05,-5.441133907879703e-06,5.372501982492395e-05
-1.6549071006011218e-05,4.433689537108876e-05,-7.668939360883087e-06,5.4969179473118857e-05
-1.9872275515808724e-05,4.488872582442127e-05,-1.011857148114359e-05,5.729172698920593e-05
-2.5827410354395397e-05,4.141774115851149e-05,-1.070706821337808e-05,5.847352440468967e-05
-2.9454275136231445e-05,3.140633998555131e-05,-1.15770590127795e-05,5.881906326976605e-05
-2.8877200747956522e-05,1.4829517567704897e-05,-1.3762595699517988e-05,5.8559478929964826e-05
-2.7470388886285946e-05,4.308376901462907e-06,-1.4080442269914784e-05,5.694906576536596e-05
-2.855049206118565e-05,9.139251233136747e-06,-1.1004832231265027e-05,5.3092753660166636e-05
-3.0244345907703973e-05,2.0633806343539618e-05,-8.288173376058694e-06,5.1226037612650543e-05
-3.0165139833115973e-05,3.0097271519480273e-05,-8.113688636512961e-06,5.384568066801876e-05
-2.8864838895970024e-05,3.785631633945741e-05,-9.535745448374655e-06,5.963704097666778e-05
-2.9143136998754926e-05,4.4139531382825226e-05,-1.1112304491689429e-05,6.397363904397935e-05
-3.1306364689953625e-05,4.593537960317917e-05,-1.4467515939031728e-05,6.413384835468605e-05
-2.961862446682062e-05,4.596311555360444e-05,-1.8412389181321487e-05,6.332482735160738e-05
-2.4455037419102155e-05,4.758504655910656e-05,-1.8730826923274435e-05,6.29700007266365e-05
-2.2017924493411556e-05,4.9576159653952345e-05,-1.4814990208833478e-05,6.369323091348633e-05
-2.2588810679735616e-05,4.790907769347541e-05,-1.2238559065735899e-05,6.541314360219985e-05
-2.3602124201715924e-05,3.8891364965820685e-05,-1.3148725884093437e-05,6.522078183479607e-05
-2.286257040395867e-05,2.6767842427943833e-05,-1.4705854482599534e-05,6.476287671830505e-05
-2.255142135254573e-05,2.2616926798946224e-05,-1.377326225338038e-05,6.296831270447001e-05
-2.400261837465223e-05,2.2511003407998942e-05,-1.318036356678931e-05,6.037466664565727e-05
-2.5438310331082903e-05,2.6474115657038055e-05,-1.2460036487027537e-05,5.7907036534743384e-05
-2.660667450982146e-05,3.098411616520025e-05,-5.741796485381201e-06,5.516451346920803e-05
-2.8709479011013173e-05,3.2210591598413885e-05,-3.4650695397431264e-06,5.499316466739401e-05
-2.8130236387369223e-05,2.9559452741523273e-05,-8.32387013360858e-06,5.524835069081746e-05
-2.6831135983229615e-05,2.752066393441055e-05,-1.423614867235301e-05,5.380432048696093e-05
-2.694479189813137e-05,2.6404606614960358e-05,-1.4769860172236804e-05,5.448072624858469e-05
-2.8435062631615438e-05,2.711709021241404e-05,-1.4244609701563604e-05,5.917659655096941e-05
-2.945425694633741e-05,2.601679807412438e-05,-1.53446635522414e-05,6.189229316078126e-05
-2.8326774554443546e-05,2.2490932678920217e-05,-1.3035964002483524e-05,6.264790135901421e-05
-2.7148567824042402e-05,2.0288363884901628e-05,-6.941994342923863e-06,6.393649528035894e-05
-2.5080880732275546e-05,1.9126671759295277e-05,-2.37525978263875e-06,6.421629950636998e-05
-2.1737641873187385e-05,1.594793502590619e-05,-1.5848529528739164e-06,6.14796081208624e-05
-1.9612622054410167e-05,1.0604849194351118e-05,-3.4097142815880943e-06,5.917464295635e-05
-2.127333755197469e-05,1.1186767551407684e-05,-6.335123543976806e-06,5.665345452143811e-05
-2.2320711650536396e-05,1.4750552509212866e-05,-8.006441021279898e-06,5.3523464885074645e-05
-2.0864177713519894e-05,1.4689591807837132e-05,-1.027651615004288e-05,5.3939987992635e-05
-2.0919700546073727e-05,1.3873625903215725e-05,-1.3649448192154523e-05,5.567763582803309e-05
-2.115174356731586e-05,1.6181282262550667e-05,-1.4928539712855127e-05,5.4520933190360665e-05
-2.0491188479354605e-05,1.835991133702919e-05,-1.4694021956529468e-05,5.3241863497532904e-05
-2.3184649762697518e-05,2.6779314794111997e-05,-1.7307973394053988e-05,5.608486389974132e-05
-2.7032454454456456e-05,3.3701377105899155e-05,-1.9315650206408463e-05,5.891888213227503e-05
-2.840623892552685e-05,3.3957450796151534e-05,-1.9348286514286883e-05,6.0470320022432134e-05
-2.5531649953336455e-05,3.198762351530604e-05,-1.583285666129086e-05,5.9752775996457785e-05
-2.0849862266913988e-05,2.4918568669818342e-05,-1.5970370441209525e-05,5.51250486751087e-05
-1.9337729099788703e-05,1.6281781427096575e-05,-1.8236531104776077e-05,5.159849388292059e-05
-2.5460920369368978e-05,1.3774259969068225e-05,-1.026796417136211e-05,5.368499114410952e-05
-3.1076975574251264e-05,1.96991804841673e-05,3.973062234763347e-07,6.087000292609446e-05
-3.0463297662208788e-05,2.4879187549231574e-05,-4.478054904666351e-07,6.607270188396797e-05
-2.6923649784293957e-05,1.9244545910623856e-05,-1.1304833606118336e-05,6.747936276951805e-05
-2.138376839866396e-05,7.88805482443422e-06,-2.1781221221317537e-05,6.545529322465882e-05
-1.738464561640285e-05,-3.939279395126505e-06,-2.765238969004713e-05,6.0181424487382174e-05
-1.7401791410520673e-05,-7.04823833075352e-06,-2.8098749680793844e-05,5.676113869412802e-05
-2.2879428797750734e-05,-6.249144462344702e-06,-2.4914794266805984e-05,5.468138260766864e-05
-2.9545180950663052e-05,-6.450448836403666e-06,-2.0077051885891706e-05,5.3701092838309705e-05
-3.333035783725791e-05,-4.475396963243838e-06,-1.2542351214506198e-05,5.3690171625930816e-05
-3.3219566830666736e-05,4.6991935960249975e-06,-5.839542609464843e-06,5.630855594063178e-05
-3.4080036130035296e-05,1.767422327247914e-05,-5.837649950990453e-06,6.053236575098708e-05
-3.795523298322223e-05,2.7098261853097938e-05,-1.5028145753603894e-05,6.219735223567113e-05
-4.294419341022149e-05,3.307967199361883e-05,-2.490514270903077e-05,6.199091876624152e-05
-4.705840183305554e-05,3.664410542114638e-05,-2.692099951673299e-05,6.222703086677939e-05
-4.770436862600036e-05,3.7759251426905394e-05,-2.2726695533492602e-05,6.0491696785902604e-05
-4.35145411756821e-05,3.589186235330999e-05,-1.5263547538779676e-05,5.821556624141522e-05
-3.407826443435624e-05,3.687749631353654e-05,-6.2273147705127485e-06,5.827382119605318e-05
-2.0616973415599205e-05,3.482154352241196e-05,-4.865877599513624e-06,5.828769280924462e-05
-1.1382569937268272e-05,2.3043285182211548e-05,-1.3816414139000699e-05,5.966818571323529e-05
-1.2419570339261554e-05,1.3371093700698111e-05,-1.616326335351914e-05,6.395327363861725e-05
-1.2793796486221254e-05,1.7932849004864693e-05,-1.380214371238253e-06,6.574479630216956e-05
-7.618556537636323e-06,2.1158464733161964e-05,1.2787940249836538e-05,6.640183710260317e-05
2.1825358089699876e-06,1.9676303054438904e-05,1.1872548384417314e-05,7.16016729711555e-05
1.4958681276766583e-05,2.147149461961817e-05,4.77818002764252e-06,7.890581764513627e-05
2.194088119722437e-05,2.6715570129454136e-05,-4.35776928497944e-06,8.47109840833582e-05
2.011973447224591e-05,3.312318949610926e-05,-8.935229743656237e-06,8.456937212031335e-05
1.7432634194847196e-05,3.5389053664403036e-05,-5.8321261349192355e-06,7.843822822906077e-05
1.1485662980703637e-05,3.2224776077782735e-05,-1.3414065733741154e-06,6.903173198224977e-05
4.636803794255684e-07,3.359257607371546e-05,-3.2683039989933604e-06,6.321707769529894e-05
-1.1014281881216448e-05,3.824524173978716e-05,-1.2007833902316634e-05,6.31729926681146e-05
-2.2450805772677995e-05,3.861793447867967e-05,-2.413157926639542e-05,6.706765998387709e-05
-2.6500452804611996e-05,2.947760913230013e-05,-3.571102206478827e-05,7.230778282973915e-05
-2.8848948204540648e-05,1.0091312105942052e-05,-4.0661841921973974e-05,7.407477824017406e-05
-3.5154524084646255e-05,-6.9787442953384016e-06,-4.06627805205062e-05,7.227131573017687e-05
-4.7986100980779156e-05,-1.378884644509526e-05,-3.9567701605847105e-05,6.620597559958696e-05
-6.24554231762886e-05,-1.0283578376402147e-05,-3.567503154044971e-05,5.75635458517354e-05
-6.972183473408222e-05,-6.963370196899632e-06,-2.7393594791647047e-05,4.981576057616621e-05
-7.046257087495178e-05,-1.2529813830042258e-05,-1.8560484022600576e-05,4.498523776419461e-05
-7.043678488116711e-05,-2.2790809452999383e-05,-8.790954780124594e-06,4.0283604903379455e-05
-6.990358815528452e-05,-3.166669557685964e-05,4.229754722473444e-06,3.499821468722075e-05
-6.332747580017895e-05,-3.2555803045397624e-05,1.4229630323825404e-05,3.2866100809769705e-05
-5.2175120799802244e-05,-2.2674195861327462e-05,1.859524127212353e-05,3.163983274134807e-05
-3.7082361814100295e-05,-9.341146324004512e-06,2.4074697648757137e-05,3.0069777494645678e-05
-1.7016876881825738e-05,2.3321135813603178e-06,3.40438200510107e-05,3.183442822773941e-05
5.212665200815536e-06,7.77402146923123e-06,4.106778942514211e-05,4.1588005842640996e-05
2.1814441424794495e-05,8.745883860683534e-06,3.395438034203835e-05,5.643195254378952e-05
2.8368020139168948e-05,2.363779640290886e-05,1.1785796232288703e-05,6.795350782340392e-05
2.5213093977072276e-05,5.0495196774136275e-05,-9.753742233442608e-06,7.420218025799841e-05
2.0033048713230528e-05,6.798655522288755e-05,-1.2477858035708778e-05,8.043554407777265e-05
1.0337052117392886e-05,7.338661089306697e-05,-8.564429094803927e-07,8.79659564816393e-05
-1.3830366469846922e-06,7.643693243153393e-05,1.0717527402448468e-05,9.043834143085405e-05
-6.860424036858603e-06,7.897078467067331e-05,1.4876043678668793e-05,8.78897262737155e-05
-6.381676939781755e-06,9.098822192754596e-05,1.3026990018261131e-05,8.406886627199128e-05
-6.5899725996132474e-06,0.00012249422434251755,8.608453754277434e-06,7.801069295965135e-05
-7.362709766312037e-06,0.00014376826584339142,1.9829014945571544e-06,7.487476977985352e-05
-7.034447207843186e-06,0.00011953288048971444,-5.784781933471095e-06,7.555455522378907e-05
-9.029372449731454e-06,7.688848563702777e-05,-1.327238351223059e-05,7.588972221128643e-05
-1.3149568076187279e-05,6.120263424236327e-05,-1.910835999296978e-05,7.410447142319754e-05
-2.2728112526237965e-05,7.082755473675206e-05,-2.5036721126525663e-05,6.934063276275992e-05
-3.0449060432147235e-05,8.610315853729844e-05,-3.2435647881357e-05,6.436109106289223e-05
-3.257050411775708e-05,8.980510028777644e-05,-3.635580651462078e-05,5.996760228299536e-05
-3.419260974624194e-05,8.331122808158398e-05,-3.104240386164747e-05,6.0072066844441e-05
-3.751556505449116e-05,6.762337579857558e-05,-2.0594985471689142e-05,6.026681512594223e-05
-3.817049218923785e-05,4.468401675694622e-05,-1.1561516657820903e-05,5.745064117945731e-05
-3.705029666889459e-05,2.5522820578771643e-05,-7.714873390796129e-06,5.334793604561128e-05
-3.811701753875241e-05,1.775100281520281e-05,-9.526870599074755e-06,4.901131978840567e-05
-3.883579120156355e-05,1.1780769455072004e-05,-1.2642981346289162e-05,4.675323725678027e-05
-3.7297217204468325e-05,1.6989862388072652e-06,-1.3793222933600191e-05,4.657375393435359e-05
-3.59219811798539e-05,-5.647427769872593e-06,-1.3948128980700858e-05,4.547042408376001e-05
-3.781218038056977e-05,-6.2029739638092e-06,-1.433503257430857e-05,4.063243613927625e-05
-4.000809713033959e-05,6.780593935218349e-07,-1.4545395060849842e-05,3.540572288329713e-05
-4.195307337795384e-05,1.2225812497490551e-05,-1.5949353837640956e-05,3.4707387385424227e-05
-4.5164983021095395e-05,2.72068937192671e-05,-1.712570883682929e-05,3.665718759293668e-05
-4.8663328925613314e-05,4.165860445937142e-05,-1.6852271073730662e-05,3.846387699013576e-05
-5.171687371330336e-05,5.226505527389236e-05,-1.5432255167979747e-05,4.245336458552629e-05
-5.490860348800197e-05,5.3653871873393655e-05,-1.3595327800430823e-05,4.320700827520341e-05
-5.3364914492703974e-05,4.3198866478633136e-05,-8.912380508263595e-06,4.0751816413830966e-05
-4.621585685526952e-05,3.0918436095817015e-05,-2.3381790015264414e-06,3.988359458162449e-05
-4.115432966500521e-05,2.4203907742048614e-05,2.0002437395305606e-06,4.000105400336906e-05
-4.355253986432217e-05,1.9307453840156086e-05,3.470985120657133e-06,4.156498471274972e-05
-4.5095232053427026e-05,1.0101902262249496e-05,-2.3524796688434435e-06,4.168938539805822e-05
-4.170049578533508e-05,-5.188169325265335e-06,-6.869925073260674e-06,4.611449548974633e-05
-3.958951492677443e-05,-7.943087439343799e-06,-2.9181319405324757e-06,5.203482578508556e-05
-3.898278373526409e-05,1.1537218597368337e-05,3.964788902521832e-06,4.9926373321795836e-05
-4.145978527958505e-05,3.810460475506261e-05,7.94958214100916e-06,5.028189843869768e-05
-4.320860898587853e-05,4.0166458347812295e-05,2.0855400180153083e-06,5.1189359510317445e-05
-3.8192072679521516e-05,1.4323151162898284e-06,-8.41572637000354e-06,4.848434400628321e-05
-2.8450305762817152e-05,-5.345202953321859e-05,-1.3326653970580082e-05,4.537316635833122e-05
-2.3026055714581162e-05,-8.172980597009882e-05,-1.4054949133424088e-05,4.648205867852084e-05
-1.9760083887376823e-05,-6.712679169140756e-05,-1.654848711041268e-05,4.893650475423783e-05
-1.7256759747397155e-05,-2.319893792446237e-05,-1.878161492641084e-05,4.770258237840608e-05
-1.7736318113747984e-05,2.0865645637968555e-05,-1.7497788576292805e-05,4.527049168245867e-05
-2.0106690499233082e-05,4.5353765017353e-05,-1.58821239892859e-05,4.51322048320435e-05
-2.23066581384046e-05,4.301343142287806e-05,-1.6916561435209587e-05,4.770643499796279e-05
-1.9997121853521094e-05,2.7316194973536767e-05,-1.627882920729462e-05,5.122859511175193e-05
-1.446007354388712e-05,1.602250267751515e-05,-1.1978079783148132e-05,5.4288768296828493e-05
-1.2868704288848676e-05,9.250778020941652e-06,-7.927725164336152e-06,5.702051203115843e-05
-1.7833372112363577e-05,3.6980682125431485e-06,-5.79618335905252e-06,6.106148794060573e-05
-2.1829404431628063e-05,1.947309101524297e-06,-4.100408204976702e-06,6.403565203072503e-05
-2.2820768208475783e-05,3.6029207421961473e-06,-3.5892892356059747e-06,6.411618960555643e-05
-2.39729015447665e-05,5.256147233012598e-06,-3.5174366530554835e-06,5.99677259742748e-05
-2.5855355488602072e-05,8.578247616242152e-06,-2.2229071419133106e-06,5.670851896866225e-05
-2.6115751097677276e-05,7.671382263652049e-06,-3.3579069622646784e-06,5.912804408580996e-05
-2.559435051807668e-05,6.240701623028144e-06,-8.048619747569319e-06,6.209039565874264e-05
-2.544490052969195e-05,7.109629677870544e-06,-1.0557247151155025e-05,5.9624733694363385e-05
-2.757894981186837e-05,1.0212625966232736e-05,-1.0855062100745272e-05,5.5218748457264155e-05
-2.6447101845405996e-05,9.735868843563367e-06,-1.3475669220497366e-05,5.512978896149434e-05
-2.249129829579033e-05,8.35994887893321e-06,-1.3382262295635883e-05,5.990592035232112e-05
-2.188435973948799e-05,1.1039449418603908e-05,-1.008493472909322e-05,6.130168912932277e-05
-2.5719835321069695e-05,1.9569530195440166e-05,-7.026214916550089e-06,6.337555532809347e-05
-3.0921051802579314e-05,2.6558811441645958e-05,-6.269448476814432e-06,6.811084313085303e-05
-3.163556175422855e-05,2.5361343432450667e-05,-7.812569492671173e-06,6.943568587303162e-05
-2.7938544008065946e-05,2.7416212105890736e-05,-1.0565360753389541e-05,6.751583714503795e-05
-2.4139286324498244e-05,3.214553726138547e-05,-1.4316250599222258e-05,6.75963019602932e-05
-2.382581078563817e-05,3.330286926939152e-05,-1.4875176020723302e-05,6.93831461830996e-05
-2.4105358534143306e-05,3.7264017009874806e-05,-1.3276153367769439e-05,7.086247933330014e-05
-2.594671241240576e-05,4.41533702542074e-05,-1.467727906856453e-05,7.156897481763735e-05
-2.9408251066342928e-05,4.444593650987372e-05,-1.678082480793819e-05,6.920164014445618e-05
-3.0868410249240696e-05,3.532847767928615e-05,-1.8004524463322014e-05,6.507083162432536e-05
-2.7619509637588635e-05,2.310622949153185e-05,-1.954669460246805e-05,6.038993888068944e-05
-2.501679591659922e-05,1.789024463505484e-05,-1.9107141270069405e-05,5.7712142734089866e-05
-2.724700425460469e-05,2.4000999474083073e-05,-1.7421461961930618e-05,5.883508129045367e-05
-3.3361033274559304e-05,3.0391995096579194e-05,-1.652934224694036e-05,6.007299816701561e-05
-3.7493759009521455e-05,2.6968396923621185e-05,-1.346466251561651e-05,5.738708205171861e-05
-3.411020588828251e-05,1.9902649000869133e-05,-7.081733656377764e-06,5.0426748202880844e-05
-2.906762165366672e-05,1.7098014723160304e-05,-4.284276656107977e-06,4.525848271441646e-05
-2.6304398488719016e-05,1.8230000932817347e-05,-9.201282409776468e-06,4.775852357852273e-05
-2.329679591639433e-05,2.343107553315349e-05,-1.4984837434894871e-05,5.047723607276566e-05
-2.142176526831463e-05,2.9094058845657855e-05,-1.4881240531394724e-05,5.021906326874159e-05
-2.5030660253833048e-05,2.47940442932304e-05,-1.0308594937669113e-05,5.0471768190618604e-05
-2.8838470825576223e-05,1.1719173016899731e-05,-7.856511729187332e-06,5.334244997357018e-05
-2.8596325137186795e-05,3.666715429062606e-06,-1.1343087862769607e-05,5.590160799329169e-05
-2.8471427867771126e-05,5.436189894680865e-06,-1.5257987797667738e-05,5.79186380491592e-05
-2.859686173906084e-05,2.3429402062902227e-06,-1.5872039512032643e-05,6.097709774621762e-05
-2.953703369712457e-05,6.575553470611339e-07,-1.462638465454802e-05,6.22247825958766e-05
-2.803117058647331e-05,1.186828831123421e-05,-1.2324800081842113e-05,6.042715176590718e-05
-2.1881078282603994e-05,2.2518113837577403e-05,-7.1595245572098065e-06,5.781759318779223e-05
-1.6998186765704304e-05,2.681140904314816e-05,-6.5280501075903885e-06,5.85230955039151e-05
-1.4712923075421713e-05,2.758698428806383e-05,-1.2047256859659683e-05,6.286210555117577e-05
-1.4493087292066775e-05,3.066064527956769e-05,-1.5517132851528004e-05,6.501151074189693e-05
-1.5601426639477722e-05,3.3086409530369565e-05,-1.4121994354354683e-05,6.346399459289387e-05
-1.7336862583761103e-05,2.900398612837307e-05,-9.104812306759413e-06,5.9272268117638305e-05
-1.8102058675140142e-05,2.4713954189792275e-05,-7.076324891386321e-06,5.6455901358276606e-05
-1.8685919712879695e-05,2.2912936401553452e-05,-8.564397830923554e-06,5.846008934895508e-05
-1.797008553694468e-05,2.1132662368472666e-05,-9.960515853890684e-06,6.417716213036329e-05
-1.847229759732727e-05,1.7883372493088245e-05,-9.552200936013833e-06,6.717755604768172e-05
-2.274795224366244e-05,1.6232857888098806e-05,-1.0942119843093678e-05,6.707156717311591e-05
-2.8215961719979532e-05,1.727554263197817e-05,-1.4937855667085387e-05,6.965389184188098e-05
-3.118498352705501e-05,2.2881167751620524e-05,-1.8048245692625642e-05,7.406810618704185e-05
-3.156211823807098e-05,2.830699122569058e-05,-1.6397259969380684e-05,7.656953675905243e-05
-3.21681254717987e-05,2.543097798479721e-05,-1.222429364133859e-05,7.52961277612485e-05
-3.278110671089962e-05,1.8017206457443535e-05,-1.1340865057718474e-05,6.974666757741943e-05
-3.422792360652238e-05,1.721811895549763e-05,-1.1199853361176793e-05,6.464883335866034e-05
-3.3908439945662394e-05,2.4430704797850922e-05,-5.318934199749492e-06,6.42937229713425e-05
-2.899391984101385e-05,2.9292699764482677e-05,4.622052529157372e-06,6.405064050341025e-05
-2.5275625375797972e-05,2.6640538635547273e-05,9.46843374549644e-06,6.131809641374275e-05
-2.545247843954712e-05,2.5281698981416412e-05,7.695603926549666e-06,6.121646583778784e-05
-2.2386020646081306e-05,3.3782460377551615e-05,5.0140315579483286e-06,6.429092900361866e-05
-1.4479117453447543e-05,4.64761360490229e-05,3.188240270901588e-06,6.522760668303818e-05
-6.258259418245871e-06,5.611343294731341e-05,1.1511315278767142e-06,6.564967043232173e-05
-6.07156152909738e-06,5.6697925174375996e-05,3.363271332545992e-07,6.697247590636835e-05
-1.013866040011635e-05,4.27978447987698e-05,-2.303955625393428e-06,6.99402517057024e-05
-1.4202628335624468e-05,2.5430406822124496e-05,-9.502630746283103e-06,7.067897240631282e-05
-1.812661867006682e-05,2.7798645533039235e-05,-1.6914096704567783e-05,6.769073661416769e-05
-2.019382009166293e-05,4.010549309896305e-05,-1.5412664652103558e-05,6.398728874046355e-05
-2.4126764401444234e-05,4.1462742956355214e-05,-5.866674655408133e-06,6.530724931508303e-05
-2.647686778800562e-05,3.151613418594934e-05,-2.9344656127250346e-07,6.775202928110957e-05
-2.5239123715437017e-05,1.5180946320469957e-05,-4.229583737469511e-06,6.524292257381603e-05
-2.1737663701060228e-05,7.733692655165214e-06,-1.1895722309418488e-05,6.041764936526306e-05
-2.2124011593405157e-05,7.338140676438343e-06,-1.4234555237635504e-05,5.7664259657030925e-05
-2.4935843612183817e-05,4.729321062768577e-06,-1.1003879080817569e-05,5.7898792874766514e-05
-2.7255831810180098e-05,-2.0786631012015278e-06,-8.996018550533336e-06,5.975000385660678e-05
-2.979075907205697e-05,-7.733051461400464e-06,-1.3332364687812515e-05,5.924072320340201e-05
-3.0165223506628536e-05,-4.841084319195943e-06,-2.077475619444158e-05,5.7312881835969165e-05
-2.6572066417429596e-05,6.154008588055149e-06,-2.484791366441641e-05,5.703606439055875e-05
-2.159926953027025e-05,2.5329794880235568e-05,-2.015091376961209e-05,5.6858156312955543e-05
-2.019396379182581e-05,4.6994024160085246e-05,-7.441959041898372e-06,5.470653195516206e-05
-2.079486512229778e-05,5.978342960588634e-05,1.5107199260455673e-06,5.020125536248088e-05
-2.115065581165254e-05,5.7483954151393846e-05,-3.953779469156871e-06,4.641752821044065e-05
-2.2244154024519958e-05,4.900262865703553e-05,-1.5899331629043445e-05,4.415150033310056e-05
-2.8287169698160142e-05,4.2002044210676104e-05,-2.1658548575942405e-05,4.522412928054109e-05
-3.4115437301807106e-05,3.529304376570508e-05,-2.1854973965673707e-05,4.8346049879910424e-05
-3.596267197281122e-05,2.869213858502917e-05,-2.079391197185032e-05,5.194524783291854e-05
-3.4466727811377496e-05,2.7593561753747053e-05,-1.8616061424836516e-05,5.4509888286702335e-05
-3.0789156880928203e-05,2.6863455786951818e-05,-1.3539976862375624e-05,5.466828588396311e-05
-2.628298898343928e-05,2.7160547688254155e-05,-5.8424197959539015e-06,5.132848673383705e-05
-1.9740422430913895e-05,3.272146568633616e-05,2.2507931589643704e-06,5.19195273227524e-05
-1.806425461836625e-05,3.4221349778817967e-05,2.2323783923638985e-06,5.136420804774389e-05
-2.3078611775417812e-05,2.9098660888848826e-05,-2.7458518161438406e-06,4.8060854169307277e-05
-2.5617015126044862e-05,3.397350155864842e-05,-1.7178369944303995e-06,5.069637336418964e-05
-2.582043089205399e-05,5.5159103794721887e-05,2.2683657334710006e-06,5.132183650857769e-05
-2.634393058542628e-05,7.782287138979882e-05,1.4359911801875569e-06,4.730829823529348e-05
-2.60961169260554e-05,9.277581557398662e-05,-2.006344402616378e-06,4.714415626949631e-05
-2.7705757020157762e-05,9.230744035448879e-05,-6.8932549766032025e-06,5.551413050852716e-05
-3.3115044061560184e-05,7.777926657581702e-05,-1.622251329536084e-05,6.38419805909507e-05
-3.39883154083509e-05,5.9358953876653686e-05,-2.4557257347623818e-05,6.533326086355373e-05
-2.9456992706400342e-05,3.999616819783114e-05,-2.5221075702575035e-05,6.152210698928684e-05
-2.8267611924093217e-05,2.0977135136490688e-05,-2.1181862393859774e-05,5.4189458751352504e-05
-3.173532968503423e-05,6.718827989971032e-06,-1.9004317437065765e-05,4.841593909077346e-05
-3.491856114123948e-05,1.8114629938281723e-06,-1.8324702978134155e-05,4.7546898713335395e-05
-3.2441581424791366e-05,8.412809620494954e-06,-1.588753002579324e-05,5.102117211208679e-05
-2.7019073968403973e-05,2.3787597456248477e-05,-9.05606611922849e-06,5.825420521432534e-05
-2.450854481139686e-05,3.4630014852155e-05,3.3772406027310353e-07,6.482678872998804e-05
-2.5471461412962526e-05,2.546356881794054e-05,4.351913048594724e-06,6.337656668620184e-05
-2.5107015972025692e-05,-1.0557332643656991e-06,-1.4556026144418865e-06,5.9082656662212685e-05
-2.3058724764268845e-05,-2.173646498704329e-05,-1.0837108675332274e-05,6.272594328038394e-05
-2.578653766249772e-05,-2.3465370759367943e-05,-1.863988654804416e-05,7.186560833361e-05
-3.440499858697876e-05,-2.0415096514625475e-05,-2.1858502805116586e-05,7.555829506600276e-05
-3.846832623821683e-05,-2.190690065617673e-05,-2.023251545324456e-05,7.5105344876647e-05
-3.421944347792305e-05,-3.097913941019215e-05,-1.8028486010734923e-05,7.661870768060908e-05
-3.057246431126259e-05,-5.0121889216825366e-05,-1.6402811525040306e-05,7.531778828706592e-05
-3.385233867447823e-05,-6.591386772925034e-05,-1.5338906450779177e-05,6.783190474379808e-05
-3.956720684072934e-05,-6.818478868808597e-05,-1.7093219867092557e-05,5.718978718505241e-05
-4.314173565944657e-05,-5.572755981120281e-05,-1.6613466868875548e-05,4.969224028172903e-05
-4.4829477701568976e-05,-2.9391039788606577e-05,-1.0165193089051172e-05,4.684142186306417e-05
-4.2923307773889974e-05,-5.00220266985707e-06,-5.266700100037269e-06,4.714013266493566e-05
-3.3801476092776284e-05,1.3073310583422426e-05,-3.2931177429418312e-06,4.8723759391577914e-05
-2.6183746740571223e-05,3.619727795012295e-05,-1.0131343515240587e-06,4.882800203631632e-05
-2.1983636543154716e-05,5.860455348738469e-05,9.19682588573778e-06,4.9532492994330823e-05
-1.2698087630269583e-05,7.275966345332563e-05,2.2865173377795145e-05,5.509726543095894e-05
-1.8077769254887244e-06,8.114754018606618e-05,2.6874795366893522e-05,6.071091047488153e-05
1.7095313751269714e-06,8.658236038172618e-05,2.1298208594089374e-05,6.005877730785869e-05
-3.3031099064828595e-06,9.06583882169798e-05,6.956681318115443e-06,5.498408791027032e-05
-7.309897682716837e-06,9.093866538023576e-05,-9.712674000184052e-06,5.226156281423755e-05
-8.097500540316105e-06,8.628557407064363e-05,-2.349891292396933e-05,5.4328258556779474e-05
-9.438434972253162e-06,7.479736086679623e-05,-3.2545169233344495e-05,5.556339237955399e-05
-1.3234837751952e-05,5.870191307622008e-05,-3.472970274742693e-05,5.4172171076061204e-05
-1.8443315639160573e-05,4.716212788480334e-05,-3.3614214771660045e-05,5.221536412136629e-05
-2.707104431465268e-05,4.2456806113477796e-05,-2.9858118068659678e-05,5.2455819968599826e-05
-3.696585554280318e-05,4.445676677278243e-05,-2.185234370699618e-05,5.460233660414815e-05
-4.1111863538390025e-05,4.871713099419139e-05,-1.1579302736208774e-05,5.4180163715500385e-05
-3.678216671687551e-05,5.0293074309593067e-05,-3.508398094709264e-06,5.2808587497565895e-05
-3.093119812547229e-05,5.208303628023714e-05,-2.489219923518249e-07,5.301274359226227e-05
-2.674304232641589e-05,6.404100713552907e-05,-2.2231708953768248e-06,5.3289008064894006e-05
-2.1634115910273977e-05,8.21039211587049e-05,-5.658161626342917e-06,5.426754432846792e-05
-2.0731351469294168e-05,8.171823719749227e-05,-9.488745490671135e-06,5.6146629503928125e-05
-2.7957288693869486e-05,5.525689630303532e-05,-1.556467395857908e-05,5.876378054381348e-05
-3.671927333925851e-05,2.616143501654733e-05,-2.1511485101655126e-05,6.0657213907688856e-05
-3.8165642763487995e-05,1.685494680714328e-05,-2.226609103672672e-05,5.938960021012463e-05
-3.4930100810015574e-05,1.7338516045128927e-05,-1.582335971761495e-05,5.289040564093739e-05
-3.2839332561707124e-05,1.3499357010005042e-05,-1.0477097021066584e-05,4.441652345121838e-05
-3.5159890103386715e-05,1.3843633496435359e-05,-4.260207333572907e-06,4.3596392060862854e-05
-3.930226375814527e-05,1.5955405615386553e-05,6.775748602194653e-07,4.9087520892499015e-05
-4.094102041563019e-05,1.1955537047469988e-05,-2.655936214068788e-06,5.29159078723751e-05
-3.8657297409372404e-05,8.159506251104176e-06,-7.189763891801704e-06,5.6335789849981666e-05
-3.565608858480118e-05,1.1717786946974229e-05,-1.2870917998952791e-05,5.86492897127755e-05
-3.305257996544242e-05,1.5661746147088706e-05,-1.868508115876466e-05,5.747532850364223e-05
-3.0202334528439678e-05,1.0338882020732854e-05,-2.214192136307247e-05,5.431968384073116e-05
-2.9746175641776063e-05,3.115923163932166e-06,-2.1808253222843632e-05,5.125588722876273e-05
-3.164853842463344e-05,1.6099117772228055e-07,-1.953910759766586e-05,5.404421972343698e-05
-3.328862658236176e-05,-2.062799467239529e-06,-1.3570227565651294e-05,5.886732105864212e-05
-3.3590335078770295e-05,-1.1376068869139999e-05,-5.95115761825582e-06,5.735055674449541e-05
-3.3209111279575154e-05,-2.452237458783202e-05,-5.3546441449725535e-06,5.2059662266401574e-05
-3.324921635794453e-05,-2.7438194592832588e-05,-1.0624537935655098e-05,5.1985822210554034e-05
-3.1430456147063524e-05,-1.3046095773461275e-05,-1.1976834684901405e-05,5.4481304687215015e-05
-2.715258415264543e-05,3.7500262806133833e-06,-4.377018285595113e-06,5.295064329402521e-05
-2.3652490199310705e-05,1.0747422493295744e-05,4.820898993784795e-06,4.990173692931421e-05
-2.2488278773380443e-05,9.36582546273712e-06,1.0942035260086413e-05,5.0855669542215765e-05
-2.3074298951542005e-05,6.560402653121855e-06,1.3411405234364793e-05,5.5385768064297736e-05
-2.387145286775194e-05,7.342219760175794e-06,1.2968019291292876e-05,5.804892134619877e-05
-2.1692210793844424e-05,1.1305794032523409e-05,6.9621864895452745e-06,5.8166144299320877e-05
-1.774466181814205e-05,1.1275002179900184e-05,-1.2472561365939328e-06,5.961118222330697e-05
-1.6856289221323095e-05,-9.6800602022995e-07,-4.151333541813074e-06,5.866329956916161e-05
-1.7462129108025692e-05,-1.2637962754524779e-05,-3.483247155600111e-06,5.217812940827571e-05
-1.7503354683867656e-05,-1.4813629604759626e-05,-8.155656360031571e-06,4.844179056817666e-05
-1.4947203453630209e-05,-1.6649872122798115e-05,-1.6222829799517058e-05,5.065713412477635e-05
-1.2128604794270359e-05,-1.6908654288272373e-05,-2.2883754354552366e-05,5.289711771183647e-05
-1.4053730410523713e-05,-8.012193575268611e-06,-2.287138886458706e-05,5.714128565159626e-05
-1.807968146749772e-05,1.0351876881031785e-05,-1.3260672858450562e-05,6.466574996011332e-05
-2.1298788851709105e-05,3.5154873330611736e-05,-9.587689419277012e-06,6.71332745696418e-05
-2.3293663616641425e-05,5.582508310908452e-05,-1.3099013813189231e-05,6.0941532865399495e-05
-2.568981835793238e-05,7.219855615403503e-05,-1.8529513909015805e-05,5.077449532109313e-05
-3.028808714589104e-05,8.498560055159032e-05,-2.1274061509757303e-05,4.821997572435066e-05
-3.461199958110228e-05,8.981563587440178e-05,-1.5949301086948253e-05,5.249893365544267e-05
-3.521311373333447e-05,9.402794967172667e-05,-9.704659532872029e-06,5.849742956343107e-05
-3.317599112051539e-05,9.19020822038874e-05,-7.5970815487380605e-06,6.130122346803546e-05
-3.262763857492246e-05,7.344115147134289e-05,-9.925498488883022e-06,6.235521141206846e-05
-3.3961616281885654e-05,5.377180423238315e-05,-1.4715034012624528e-05,6.460004806285724e-05
-3.602415381465107e-05,3.799180194619112e-05,-1.7383325030095875e-05,6.841328286100179e-05
-3.606099198805168e-05,5.579479875450488e-06,-1.2895826330350246e-05,7.002153142821044e-05
-3.4720200346782804e-05,-4.352383621153422e-05,-5.437123490992235e-06,6.933183613000438e-05
-3.287610525148921e-05,-6.572093116119504e-05,-1.5674927453801502e-06,6.6955471993424e-05
-3.076039138250053e-05,-4.170634565525688e-05,-4.2242635345246526e-07,6.321296677924693e-05
-2.87098519038409e-05,2.5404078769497573e-06,3.0202049856598023e-06,6.162693171063438e-05
-2.8042146368534304e-05,3.495410783216357e-05,7.452640147675993e-06,6.134099385235459e-05
-2.659125857462641e-05,4.870676639256999e-05,8.085200533969328e-06,6.271456368267536e-05
-2.1145075152162462e-05,5.266488733468577e-05,2.919687403846183e-06,6.361952546285465e-05
-1.388180044159526e-05,4.2560881411191076e-05,-1.1517571692820638e-05,6.197074253577739e-05
-1.0229276995232794e-05,1.4778867807763163e-05,-2.9953893317724578e-05,5.757849430665374e-05
-1.145123223977862e-05,-1.0460455996508244e-05,-3.976146035711281e-05,5.526610402739607e-05
-1.3887824934499804e-05,-1.594986315467395e-05,-3.6315195757197216e-05,5.711359335691668e-05
-1.6674242942826822e-05,-1.11230110633187e-05,-2.7295402105664834e-05,6.0305635997792706e-05
-1.971013261936605e-05,-6.664466582151363e-06,-1.95986849576002e-05,5.9447655075928196e-05
-2.3008538846625015e-05,-5.293736649036873e-07,-1.0321737136109732e-05,5.783520464319736e-05
-2.559151289460715e-05,1.0843711606867146e-05,-1.4310414826468332e-06,5.794646858703345e-05
-2.6343643185100518e-05,1.887110192910768e-05,4.5682844529437716e-07,5.7354285672772676e-05
-2.205151213274803e-05,2.023775778070558e-05,-2.7363369099475676e-06,5.314549707691185e-05
-1.8198616089648567e-05,1.0049573575088289e-05,-8.721277481527068e-06,5.179494837648235e-05
-2.0996740204282105e-05,-3.33664684148971e-06,-1.732081909722183e-05,5.03184346598573e-05
-2.5772005756152794e-05,-5.390804744820343e-06,-2.2490312403533608e-05,4.6345419832505286e-05
-2.5798999558901414e-05,4.08856203648611e-06,-1.858883842942305e-05,4.8648391384631395e-05
-2.204001611971762e-05,2.4381550247198902e-05,-8.459109267278109e-06,5.8303070545662194e-05
-1.5514471670030616e-05,4.461324351723306e-05,4.8919373512035236e-06,6.914451660122722e-05
-7.761187589494511e-06,4.963639730704017e-05,1.1889673260156997e-05,7.136147905839607e-05
-5.922991931583965e-06,4.3045092752436176e-05,7.148641088861041e-06,6.916082202224061e-05
-1.2072541721863672e-05,4.1656956454971805e-05,1.9506292119331192e-06,6.934379052836448e-05
-2.05166816158453e-05,4.9157097237184644e-05,3.57451267518627e-06,7.179727253969759e-05
-2.5674306016298942e-05,5.528435212909244e-05,3.853087491734186e-06,7.391997496597469e-05
-2.6644736863090657e-05,4.945460386807099e-05,-5.9296112340234686e-06,7.250390626722947e-05
-2.5353225282742642e-05,3.4940432669827715e-05,-1.917744884849526e-05,6.78501819493249e-05
-2.569862590462435e-05,2.295755984960124e-05,-2.6235829864162952e-05,6.499837036244571e-05
-2.9210681532276794e-05,1.3460049558489118e-05,-2.7217341994401067e-05,6.38458805042319e-05
-3.275742710684426e-05,6.285914878390031e-06,-2.5060366169782355e-05,6.359341932693496e-05
-3.2656749681336805e-05,9.452486665395554e-06,-1.7179068890982307e-05,6.495064735645428e-05
-3.0175036954460666e-05,2.7338499421603046e-05,-7.691722203162499e-06,6.573528662556782e-05
-3.152757926727645e-05,4.692205402534455e-05,-7.6082724262960255e-06,6.573299469891936e-05
-3.8829482946312055e-05,5.151514778845012e-05,-1.8191647541243583e-05,6.794949877075851e-05
-4.456195165403187e-05,4.3572985305218026e-05,-3.0324219551403075e-05,7.522745727328584e-05
-4.327761780587025e-05,3.84200357075315e-05,-3.375617598067038e-05,8.262559276772663e-05
-3.9545047911815345e-05,4.2037732782773674e-05,-3.0468774639302865e-05,8.255399734480307e-05
-4.060518404003233e-05,4.282702138880268e-05,-2.999224489030894e-05,7.41801704862155e-05
-4.067915506311692e-05,2.520107227610424e-05,-3.700529123307206e-05,6.286228745011613e-05
-2.9166765671106987e-05,9.009490327116509e-07,-4.231484854244627e-05,5.979478737572208e-05
-1.7488229786977172e-05,-1.4330275917018298e-05,-3.3357668144162744e-05,5.935201988904737e-05
-1.4307478522823658e-05,-2.6578083634376526e-05,-2.2047554011805914e-05,5.6804503401508555e-05
-1.1649186490103602e-05,-3.360824484843761e-05,-1.8616388842929155e-05,5.7132252550218254e-05
-8.172323759936262e-06,-2.7072621378465556e-05,-1.688925658527296e-05,5.720783519791439e-05
-1.9329854694660753e-06,-1.4132939213595819e-05,-1.0130198461411055e-05,5.83933069719933e-05
4.8938763939077035e-06,4.3632093138512573e-07,1.0077281331177801e-05,6.216462497832254e-05
4.719602657132782e-06,2.4062892407528125e-05,3.7459481973201036e-05,6.559438043041155e-05
-2.3931668238219572e-06,4.363681728136726e-05,4.6932218538131565e-05,6.046021735528484e-05
-7.77700734033715e-06,4.5506178139476106e-05,2.6588815671857446e-05,5.019349919166416e-05
-3.7623258322128095e-06,4.62600655737333e-05,-1.4197772770785377e-06,4.5778098865412176e-05
5.122597485751612e-06,5.8213205193169415e-05,-1.3246550224721432e-05,5.0995746278204024e-05
4.547864136839053e-06,6.027149720466696e-05,-9.716795830172487e-06,5.860731107532047e-05
-1.059137866832316e-05,3.9034955989336595e-05,-4.934740445605712e-06,6.019227294018492e-05
-2.9818645998602733e-05,1.4692195691168308e-05,-9.139180292550009e-06,5.781051004305482e-05
-3.6945788451703265e-05,1.1958997674810234e-05,-2.0027920982101932e-05,6.0258389567025006e-05
-3.119089160463773e-05,2.822735950758215e-05,-2.790704274957534e-05,7.004283543210477e-05
-2.7412826966610737e-05,4.414493378135376e-05,-2.7153704650118016e-05,7.792440737830475e-05
-3.1804334867047146e-05,5.08974953845609e-05,-2.0654879335779697e-05,7.535103213740513e-05
-4.0013273974182084e-05,5.117464388604276e-05,-1.5115681890165433e-05,6.55914845992811e-05
-4.4495613110484555e-05,4.499820352066308e-05,-1.2347384654276539e-05,5.729464101023041e-05
-4.385168358567171e-05,3.59195182682015e-05,-1.0187923180637881e-05,5.4666539654135704e-05
-4.284818714950234e-05,3.247312270104885e-05,-4.420232926349854e-06,5.693423736374825e-05
-4.380535028758459e-05,3.5639059206005186e-05,8.339103260368574e-06,5.6960681831697e-05
-4.4114251068094745e-05,4.130455999984406e-05,1.4808851119596511e-05,5.4656855354551226e-05
-4.386805812828243e-05,4.502419687923975e-05,1.0106768968398683e-06,5.134147795615718e-05
-4.8366557166446e-05,4.958772478858009e-05,-1.9372726455912925e-05,5.047018930781633e-05
-5.675642751157284e-05,5.2047300414415076e-05,-2.0320761905168183e-05,5.1705868827411905e-05
-6.117405428085476e-05,4.556606654659845e-05,-8.339446139871143e-06,5.006054198020138e-05
-5.832619353896007e-05,3.2758161978563294e-05,-2.925616172433365e-06,5.2827912440989166e-05
-4.8009933379944414e-05,2.2960872229305096e-05,-5.033807155996328e-06,6.120288890087977e-05
-3.816594471572898e-05,1.8840764823835343e-05,-6.119210866017966e-06,6.41048391116783e-05
-3.511030081426725e-05,1.3830842362949625e-05,-3.191477389918873e-06,6.03695516474545e-05
-3.620687130023725e-05,1.2884851457783952e-05,1.8854326526707155e-06,5.515488373930566e-05
-3.6646659282268956e-05,2.1585939975921065e-05,9.174570550385397e-06,5.1225011702626944e-05
-3.150120755890384e-05,3.023294084414374e-05,1.4071352779865265e-05,4.8262914788210765e-05
-2.3384853193419985e-05,3.875044785672799e-05,1.660401903791353e-05,4.9271828174823895e-05
-1.389404587825993e-05,4.5858119847252965e-05,1.571733082528226e-05,5.595424954663031e-05
-8.06773459771648e-06,4.37718590546865e-05,1.410191453032894e-05,6.310022581601515e-05
-9.020491233968642e-06,3.649459540611133e-05,1.259302553080488e-05,6.680964725092053e-05
-1.1761455425585154e-05,3.205663597327657e-05,6.503906661237124e-06,6.779243994969875e-05
-1.145261740020942e-05,2.9275068300194107e-05,-5.418454293248942e-06,7.073568849591538e-05
-9.516253157926258e-06,2.424374906695448e-05,-1.796137985365931e-05,7.255408854689449e-05
-9.508028597338125e-06,1.3298030353325885e-05,-2.5812410967773758e-05,6.742930418113247e-05
-1.0705030035751406e-05,-6.767304967070231e-06,-2.8581740480149165e-05,5.817065175506286e-05
-1.1327769243507646e-05,-2.3308182790060528e-05,-2.6148258257308044e-05,5.1786926633212715e-05
-1.143845929618692e-05,-2.4947486963355914e-05,-2.268018579343334e-05,4.887029717792757e-05
-1.7306592781096697e-05,-1.667518517933786e-05,-2.3089925889507867e-05,4.6687368012499064e-05
-2.678044984349981e-05,1.3477419997798279e-06,-2.6909161533694714e-05,4.441672354005277e-05
-3.0085411708569154e-05,1.7860180378193036e-05,-2.981171928695403e-05,4.419290416990407e-05
-2.2281596102402546e-05,2.4609309548395686e-05,-2.8268939786357805e-05,5.4287080274662e-05
-1.0875635780394077e-05,3.139130785712041e-05,-2.1683532395400107e-05,6.980350735830143e-05
-8.128261470119469e-06,3.014729736605659e-05,-9.14800966711482e-06,7.640325929969549e-05
-1.2640613931580447e-05,1.6669442629790865e-05,6.985376785451081e-06,7.607186125824228e-05
-2.315036726940889e-05,-5.564496859733481e-06,1.4779903722228482e-05,7.349242514465004e-05
-3.621585346991196e-05,-3.0150418751873076e-05,1.725056063150987e-05,6.981709884712473e-05
-3.9454422221751884e-05,-3.035763256775681e-05,2.366957960475702e-05,6.813130312366411e-05
-2.919433063652832e-05,1.7847671642812202e-06,3.249049041187391e-05,6.776987720513716e-05
-1.7031774405040778e-05,4.4928801798960194e-05,2.7480751668917947e-05,6.265795673243701e-05
-1.2981608051632065e-05,7.808538794051856e-05,8.205211088352371e-06,5.52381097804755e-05
-1.558650728838984e-05,8.87793066794984e-05,-6.093268439144595e-06,5.1824677939293906e-05
-2.3597271137987264e-05,0.00010045410454040393,-1.0530719919188414e-05,5.341064388630912e-05
-3.0067638363107108e-05,0.00011833746975753456,-1.1554295269888826e-05,5.408519064076245e-05
-2.9887320124544203e-05,0.00011197835556231439,-2.2566782718058676e-05,5.1042803534073755e-05
-2.796343142108526e-05,7.480921340174973e-05,-4.0148283005692065e-05,4.752417953568511e-05
-3.2049487344920635e-05,3.2109644962474704e-05,-5.0172515329904854e-05,4.539881047094241e-05
-3.809114423347637e-05,4.237237590132281e-06,-4.717975025414489e-05,4.689049455919303e-05
-3.866820770781487e-05,-5.510626124305418e-06,-3.704124173964374e-05,4.955295298714191e-05
-3.58644756488502e-05,-4.7826647460169625e-06,-2.9520075258915313e-05,5.030155080021359e-05
-3.401920912438072e-05,-6.041014330548933e-06,-3.240257501602173e-05,4.598894520313479e-05
-3.455702244536951e-05,-1.4083432688494213e-05,-4.325865666032769e-05,3.706867209984921e-05
-3.366816963534802e-05,-1.8759672457235865e-05,-4.7457095206482336e-05,2.927047898992896e-05
-2.869149284379091e-05,-1.0408144817120046e-06,-3.053496402571909e-05,3.098553133895621e-05
-2.4526334527763538e-05,3.5581029806053266e-05,1.6422583257735823e-06,4.095229087397456e-05
-2.662038605194539e-05,6.91581008140929e-05,2.600948755571153e-05,5.050917388871312e-05
-2.7962683816440403e-05,8.094930672086775e-05,3.3784137485781685e-05,5.32687408849597e-05
-2.4369159291381948e-05,6.940333696547896e-05,2.6200328647973947e-05,5.2536655857693404e-05
-2.078856050502509e-05,5.272129055811092e-05,1.1809265743067954e-05,5.617134956992231e-05
-1.9262248315499164e-05,4.612844350049272e-05,9.66960215009749e-07,6.411917274817824e-05
-1.5591913324897178e-05,3.6513301893137395e-05,-4.251677182764979e-06,6.5675973019097e-05
-8.953196811489761e-06,1.8668390111997724e-05,-2.17137699110026e-06,5.9777830756502226e-05
-5.978008630336262e-06,1.0274487067363225e-05,2.064326736217481e-06,5.85572088311892e-05
-6.980004854995059e-06,9.160729860013817e-06,2.9727693799941335e-06,5.68067844142206e-05
-8.56883889355231e-06,9.179737389786169e-06,-1.3225267139205243e-06,5.256639269646257e-05
-8.768728548602667e-06,1.1843466381833423e-05,-7.6163833000464365e-06,5.2998049795860425e-05
-3.4990885069419164e-06,1.8703347450355068e-05,-1.4167406334308907e-05,5.350395440473221e-05
-6.914696086823824e-07,3.318762901471928e-05,-2.232054976047948e-05,5.237109144218266e-05
-5.345988938643131e-06,4.827654265682213e-05,-2.7144489649799652e-05,5.076906018075533e-05
-1.1555486707948148e-05,5.6932956795208156e-05,-3.0284638341981918e-05,5.151594086783007e-05
-1.5778974557179026e-05,4.644097134587355e-05,-3.142523564747535e-05,5.4645122872898355e-05
-2.112183028657455e-05,2.688515087356791e-05,-2.576011320343241e-05,5.618854265776463e-05
-2.8067246603313833e-05,1.1803947018051986e-05,-1.1220937267353293e-05,5.6480981584172696e-05
-3.3571497624507174e-05,8.15137263998622e-06,2.6673576485336525e-06,5.247289300314151e-05
-3.9587190258316696e-05,1.0364227819081862e-05,3.5614666558103636e-06,4.6625671529909596e-05
-4.5346325350692496e-05,7.285010724444874e-06,-1.3389430932875257e-05,4.4531127059599385e-05
-4.776019341079518e-05,-3.378296014489024e-06,-3.642458614194766e-05,4.6823028242215514e-05
-4.570487726596184e-05,-1.8209289919468574e-05,-4.782470568898134e-05,4.962298407917842e-05
-4.1517130739521235e-05,-3.617030233726837e-05,-4.5512759243138134e-05,4.963537503499538e-05
-3.8461719668703154e-05,-5.966776734567247e-05,-3.8120495446491987e-05,4.656382225221023e-05
-3.801381171797402e-05,-7.845042273402214e-05,-3.346140147186816e-05,4.327614442445338e-05
-3.773229764192365e-05,-7.943849050207064e-05,-3.2047511922428384e-05,4.498837370192632e-05
-3.5535173083189875e-05,-5.814487667521462e-05,-2.821426824084483e-05,4.814390922547318e-05
-3.3900232665473595e-05,-2.0534796931315213e-05,-1.328822963841958e-05,4.5383741962723434e-05
-3.882680175593123e-05,2.2953719962970354e-05,1.3275941455503926e-05,3.8840789784444496e-05
-4.463946243049577e-05,5.4151991207618266e-05,2.953938201244455e-05,3.712388934218325e-05
-3.9521280996268615e-05,7.088994607329369e-05,1.8091257516061887e-05,4.426795567269437e-05
-2.284717993461527e-05,8.513812645105645e-05,-1.4871746998323943e-06,5.4336476750904694e-05
-7.546156552962202e-07,0.0001125930793932639,-1.3183902410673909e-05,6.628431583521888e-05
4.995516064809635e-06,0.0001294900430366397,-1.812801929190755e-05,7.346858910750598e-05
-1.0984836080751847e-05,0.00012149286339990795,-2.123562626366038e-05,7.147988799260929e-05
-3.2182058930629864e-05,9.817325917538255e-05,-2.206848694186192e-05,6.800909613957629e-05
-4.343109321780503e-05,7.404985080938786e-05,-1.8433760487823747e-05,6.856348772998899e-05
-4.1839401092147455e-05,5.7789286074694246e-05,-1.2351564691925887e-05,7.366390491370112e-05
-4.046497997478582e-05,3.6741668736794963e-05,-9.386108104081359e-06,7.847449160180986e-05
-4.238142355461605e-05,7.2026741690933704e-06,-1.3241308806755114e-05,7.967416604515165e-05
-4.6489811211358756e-05,-2.6866810003411956e-05,-1.6642074115225114e-05,7.535344775533304e-05
-4.818610614165664e-05,-4.403412094688974e-05,-1.5727526260889135e-05,7.179838576121256e-05
-4.87310862808954e-05,-4.095624899491668e-05,-1.5791378245921806e-05,7.023029320407659e-05
-4.8828071157913655e-05,-4.209695543977432e-05,-2.133553607563954e-05,6.799306720495224e-05
-4.788776277564466e-05,-4.7053454181877896e-05,-2.869619675038848e-05,6.20517457718961e-05
-4.4900280045112595e-05,-3.5961755202151835e-05,-3.3768148568924516e-05,5.734334627049975e-05
-3.99830169044435e-05,-6.815997949161101e-06,-3.108219607383944e-05,5.918093665968627e-05
-3.091426333412528e-05,2.478218448231928e-05,-2.126326216966845e-05,6.475543341366574e-05
