-4.495392568060197e-05,1.704325586615596e-05,-2.584455069154501e-05,2.624735134304501e-05
-4.6420362195931375e-05,1.6201416656258516e-05,-2.664295789145399e-05,2.0979410692234524e-05
-4.5010983740212396e-05,2.578710154921282e-05,-2.8246076908544637e-05,2.2689799152431078e-05
-4.7256577090593055e-05,3.2970965548884124e-05,-2.7629288524622098e-05,3.0427929232246242e-05
-4.9657130148261786e-05,3.1481577025260776e-05,-2.5349912903038785e-05,3.805207597906701e-05
-4.418564276420511e-05,2.6930154490401037e-05,-2.3481876269215718e-05,4.054196324432269e-05
-3.480968007352203e-05,2.491491977707483e-05,-2.4130278688971885e-05,3.565041333786212e-05
-3.172919241478667e-05,2.5275761800003238e-05,-2.4317370844073594e-05,2.771079925878439e-05
-3.514802301651798e-05,2.2703268768964335e-05,-2.2556967451237142e-05,2.3159200281952508e-05
-3.732672848855145e-05,1.8551263565314002e-05,-2.0245914129191078e-05,2.4904236852307804e-05
-3.564880898920819e-05,1.947393138834741e-05,-2.0536983356578276e-05,2.8906366424052976e-05
-3.361145354574546e-05,2.7810589017462917e-05,-2.3952527044457383e-05,3.0309911380754784e-05
-3.2605348678771406e-05,3.767300950130448e-05,-2.7530171792022884e-05,2.9876599000999704e-05
-3.22007508657407e-05,4.549189907265827e-05,-3.0108718419796787e-05,3.051868770853616e-05
-3.145294249407016e-05,4.582158362609334e-05,-3.1141284125624225e-05,3.121950794593431e-05
-3.160611595376395e-05,3.3915770472958684e-05,-2.8613741960725747e-05,2.94792862405302e-05
-3.441944136284292e-05,2.091011447191704e-05,-2.2287371393758804e-05,2.6692488972912543e-05
-3.59986224793829e-05,1.9255016013630666e-05,-1.5787874872330576e-05,2.387080530752428e-05
-3.318320887046866e-05,2.6475550839677453e-05,-1.1684493074426427e-05,2.2572179659618996e-05
-3.3716863981680945e-05,3.888559149345383e-05,-1.018862531054765e-05,2.368795139773283e-05
-3.868396015604958e-05,5.208361108088866e-05,-1.0978047612297814e-05,2.285867049067747e-05
-4.061590152559802e-05,5.713204882340506e-05,-1.120810065913247e-05,2.1823649149155244e-05
-4.248944605933502e-05,5.265360596240498e-05,-1.1589588211791124e-05,2.1821679183631204e-05
-4.764254845213145e-05,4.17375449615065e-05,-1.5905907275737263e-05,2.1240846763248555e-05
-5.058596434537321e-05,3.138057581963949e-05,-2.243925518996548e-05,2.2181598978932016e-05
-4.7171502956189215e-05,2.3820955902920105e-05,-2.512934588594362e-05,2.3763266653986648e-05
-4.419126707944088e-05,1.7372029105899855e-05,-2.2517519028042443e-05,2.456973015796393e-05
-4.620974505087361e-05,1.9743802113225684e-05,-1.67074740602402e-05,2.397466050751973e-05
-5.334406887413934e-05,3.756937076104805e-05,-1.4267013284552377e-05,2.470651270414237e-05
-5.856517964275554e-05,5.480790787260048e-05,-1.737700222292915e-05,2.961089921882376e-05
-6.0637263231910765e-05,5.724341463064775e-05,-1.850177432061173e-05,3.2191201171372086e-05
-6.378300167853013e-05,4.9437883717473596e-05,-1.8426700989948586e-05,3.130778350168839e-05
-6.539507739944384e-05,3.765325163840316e-05,-1.8881208234233782e-05,2.8786573238903657e-05
-6.23130690655671e-05,3.0161565518938005e-05,-2.0208926798659377e-05,2.6180950953857973e-05
-5.98690785409417e-05,2.7245410819887184e-05,-2.1549310986301862e-05,2.5030703909578733e-05
-6.156124436529353e-05,3.315684080007486e-05,-2.2255515432334505e-05,2.4168080926756375e-05
-6.474356632679701e-05,4.573637852445245e-05,-2.2274158254731447e-05,2.353408490307629e-05
-6.442716403398663e-05,5.0492093578213826e-05,-1.9797773347818293e-05,2.5809156795730814e-05
-5.76461898162961e-05,3.6686727980850264e-05,-1.5884752428974025e-05,3.0178205634001642e-05
-4.902151340502314e-05,1.232309023180278e-05,-1.3130200386513025e-05,3.0454088118858635e-05
-4.3818363337777555e-05,-2.380858632022864e-06,-1.4972285498515703e-05,2.6553138013696298e-05
-4.4444215745897964e-05,2.2106100914243143e-06,-1.9654840798466466e-05,2.2453416022472084e-05
-4.8472466005478054e-05,1.8760738385026343e-05,-2.239078276033979e-05,2.0752906493726186e-05
-5.299476470099762e-05,3.278139411122538e-05,-2.4026199753279798e-05,2.153294553863816e-05
-5.463313209475018e-05,3.8622958527412266e-05,-2.5346025722683407e-05,2.375973417656496e-05
-5.501922350958921e-05,3.879484938806854e-05,-2.4362714611925185e-05,2.4870376364560798e-05
-5.852857793797739e-05,3.97617623093538e-05,-2.3908281946205534e-05,2.4000604753382504e-05
-6.509407830890268e-05,3.885337719111703e-05,-2.8493306672316976e-05,2.2847327272756957e-05
-7.131960592232645e-05,3.367865065229125e-05,-3.4335858799749985e-05,1.8500561054679565e-05
-7.196890510385856e-05,3.098108936683275e-05,-3.385525633348152e-05,1.2515489288489334e-05
-6.651972216786817e-05,2.740191666816827e-05,-3.016183472936973e-05,1.0032526006398257e-05
-6.192552973516285e-05,2.7989533919026144e-05,-2.5217421352863312e-05,1.1153261766594369e-05
-6.145951192593202e-05,3.5175464290659875e-05,-2.356176082685124e-05,1.5091120985744055e-05
-6.22520747128874e-05,3.574019865482114e-05,-2.615928133309353e-05,1.9570210497477092e-05
-5.85290981689468e-05,3.30750917783007e-05,-2.604116889415309e-05,2.1011612261645496e-05
-5.221621540840715e-05,3.197503974661231e-05,-2.297689024999272e-05,1.869472544058226e-05
-4.650921619031578e-05,3.6701861972687766e-05,-2.2250385882216506e-05,1.9949573470512405e-05
-4.3797423131763935e-05,4.3480180465849116e-05,-2.691923509701155e-05,2.0296782167861238e-05
-4.0097947930917144e-05,5.0067337724613026e-05,-3.079386442550458e-05,1.744301880535204e-05
-3.422240479267202e-05,5.588927160715684e-05,-3.0589762900490314e-05,1.3761757145402953e-05
-2.9028047720203176e-05,5.601915472652763e-05,-2.81702377833426e-05,1.2547039659693837e-05
-2.755151581368409e-05,4.9748719902709126e-05,-2.7218105969950557e-05,1.4878281035635155e-05
-3.079563248320483e-05,4.81499737361446e-05,-2.7175823561265133e-05,1.754568802425638e-05
-3.511179602355696e-05,5.043663259129971e-05,-2.749578925431706e-05,1.8824062863131985e-05
-4.06152248615399e-05,5.075232911622152e-05,-2.8966360332560726e-05,2.029896313615609e-05
-4.368179725133814e-05,4.731917942990549e-05,-3.088401717832312e-05,2.155872425646521e-05
-4.612743578036316e-05,4.12935514759738e-05,-3.122672569588758e-05,1.8129479940398596e-05
-4.900432031718083e-05,3.915124398190528e-05,-3.0133804102661088e-05,1.2963083463546354e-05
-4.9776816013036296e-05,3.8413771108025685e-05,-2.9455528419930488e-05,1.1756111234717537e-05
-4.721336881630123e-05,3.349088365212083e-05,-2.961385325761512e-05,1.6693280485924333e-05
-4.332043681642972e-05,2.548933662183117e-05,-2.9185648600105196e-05,2.123022022715304e-05
-3.792746065300889e-05,2.1691217625630088e-05,-2.9236671252874658e-05,2.2584372345590964e-05
-3.6985678889323026e-05,2.2859931050334126e-05,-3.270153683843091e-05,2.3044602130539715e-05
-4.4363707274897024e-05,2.7460211640573107e-05,-3.5361434129299596e-05,2.6766827431856655e-05
-5.380596485338174e-05,3.0143191906972788e-05,-3.6198212910676375e-05,3.0906077881809324e-05
-5.746566239395179e-05,3.196432226104662e-05,-3.626255056587979e-05,3.32881354552228e-05
-5.266789230518043e-05,3.2760774047346786e-05,-3.157333776471205e-05,3.536932490533218e-05
-4.6330598706845194e-05,3.215609467588365e-05,-2.6276327844243497e-05,3.347034362377599e-05
-4.40355361206457e-05,3.0008535759407096e-05,-2.83171066257637e-05,2.854461308743339e-05
-4.613263445207849e-05,3.355807712068781e-05,-3.216505137970671e-05,2.4614926587673835e-05
-5.584135578828864e-05,4.1224506276194006e-05,-3.0844443244859576e-05,2.5032346457010135e-05
-6.761683471268043e-05,4.587458897731267e-05,-2.8712731364066713e-05,3.119871689705178e-05
-7.166058639995754e-05,4.9550279072718695e-05,-2.8627591746044345e-05,3.4854168916353956e-05
-6.860646681161597e-05,5.3814612329006195e-05,-2.6225259716738947e-05,3.4739936381811276e-05
-6.390974158421159e-05,5.323782534105703e-05,-2.4175000362447463e-05,3.561964331311174e-05
-6.284435949055478e-05,4.612493285094388e-05,-2.5105289751081727e-05,3.719582673511468e-05
-6.253172614378855e-05,2.846911047527101e-05,-2.7416499506216496e-05,3.5611628845799714e-05
-6.083954212954268e-05,6.069876690162346e-06,-2.8596226911759004e-05,3.583171928767115e-05
-5.745999442297034e-05,-5.853908078279346e-06,-2.916170888056513e-05,3.803275467362255e-05
-5.223030530032702e-05,-3.595937187128584e-06,-3.2014748285291716e-05,3.5528279113350436e-05
-4.175778303761035e-05,1.1732526218111161e-05,-3.4353357477812096e-05,2.8661464966717176e-05
-2.7730373403755948e-05,2.913774187618401e-05,-3.4469405363779515e-05,2.310780473635532e-05
-1.8004318917519413e-05,4.193965651211329e-05,-3.358142566867173e-05,2.1105155610712245e-05
-1.666468415351119e-05,4.9424601456848904e-05,-3.192348958691582e-05,2.061628947558347e-05
-1.8949678633362055e-05,5.037869050283916e-05,-2.9715529308305122e-05,2.0573494111886248e-05
-2.2393534891307354e-05,4.096222255611792e-05,-2.749204941210337e-05,2.0860288714175113e-05
-3.145547452731989e-05,2.4048453269642778e-05,-2.6355652153142728e-05,2.2412095859181136e-05
-4.455477392184548e-05,7.463764291060215e-07,-2.7406122171669267e-05,2.3234935724758543e-05
-5.448150841402821e-05,-3.19952450809069e-05,-2.9888446078984998e-05,2.3859249267843552e-05
-5.7903380366042256e-05,-6.486187339760363e-05,-3.31472183461301e-05,2.359285281272605e-05
-5.765889727626927e-05,-7.32462212909013e-05,-3.8586571463383734e-05,2.265127477585338e-05
-5.86388778174296e-05,-4.852195343119092e-05,-4.249930861988105e-05,2.257394589832984e-05
-6.261243834160268e-05,-1.2547290680231526e-05,-4.077037738170475e-05,2.4737417334108613e-05
-6.134923023637384e-05,1.0770750122901518e-05,-3.580593329388648e-05,2.555200808274094e-05
-5.883280391572043e-05,2.0046132704010233e-05,-2.5304159862571396e-05,2.5195118723786436e-05
-6.177362229209393e-05,3.6885881854686886e-05,-1.9608101865742356e-05,2.7372710974304937e-05
-6.387967732734978e-05,6.202903023222461e-05,-2.2258589524426498e-05,2.897767444665078e-05
-6.212177686393261e-05,7.519387872889638e-05,-2.4539633159292862e-05,2.692191810638178e-05
-5.7241231843363494e-05,8.070140756899491e-05,-2.3703698388999328e-05,2.203040821768809e-05
-5.6073517043842e-05,9.016104741021991e-05,-2.1503788957488723e-05,1.9119812350254506e-05
-6.443470192607492e-05,0.00010417235171189532,-2.549813325458672e-05,2.0275676433811896e-05
-7.869203545851633e-05,0.00011416197230573744,-3.099916284554638e-05,2.0792518625967205e-05
-8.734520815778524e-05,0.00011404156248318031,-3.2422107324237004e-05,2.1262736481730826e-05
-8.444148261332884e-05,0.00010235624358756468,-3.098713932558894e-05,2.164431134588085e-05
-7.692570943618193e-05,7.970979640958831e-05,-3.2773696148069575e-05,1.9887891539838165e-05
-7.039518095552921e-05,4.816363434656523e-05,-3.634248787420802e-05,1.4577144611394033e-05
-6.489590305136517e-05,1.0902207577601075e-05,-3.743374691111967e-05,1.2728974979836494e-05
-6.046155249350704e-05,-2.254611172247678e-05,-3.5020566429011524e-05,1.689918281044811e-05
-5.526241511688568e-05,-4.721174263977446e-05,-3.1305989978136495e-05,2.1711222871090285e-05
-4.669915870181285e-05,-6.017325722496025e-05,-2.8718130124616437e-05,2.205895543738734e-05
-3.7575155147351325e-05,-5.512703501153737e-05,-2.6245430490234867e-05,1.7939961253432557e-05
-3.3608212106628343e-05,-2.8794960599043407e-05,-2.4195014702854678e-05,1.2928665455547161e-05
-3.719000596902333e-05,5.200529358262429e-06,-2.2543381419382058e-05,1.1112338142993394e-05
-4.1958199290093035e-05,3.202703010174446e-05,-2.0967057935195044e-05,1.4966076378186699e-05
-4.229417027090676e-05,4.858377724303864e-05,-1.9305940440972336e-05,2.125782339135185e-05
-4.042415093863383e-05,5.593041714746505e-05,-1.7994238078244962e-05,2.486979792593047e-05
-4.003122739959508e-05,5.7578021369408816e-05,-1.8148146409657784e-05,2.42346286540851e-05
-4.338457074481994e-05,5.8646855904953554e-05,-2.1362895495258272e-05,2.309309820702765e-05
-4.52526546723675e-05,5.8774723584065214e-05,-2.3869126380304806e-05,2.1165560610825196e-05
-4.233602885506116e-05,5.777258411399089e-05,-2.3065536879585125e-05,2.0984634829801507e-05
-4.0387669287156314e-05,5.397198401624337e-05,-2.1692067093681544e-05,2.315932943020016e-05
-3.9340462535619736e-05,4.942140367347747e-05,-2.1062895029899664e-05,2.6947400328936055e-05
-3.8109763409011066e-05,4.9007961933966726e-05,-2.005538044613786e-05,3.1270501494873315e-05
-3.890439256792888e-05,4.823030030820519e-05,-2.076259443128947e-05,3.277620271546766e-05
-4.3824540625792e-05,4.380414975457825e-05,-2.209331069025211e-05,2.9274599000927992e-05
-5.023819539928809e-05,3.734150595846586e-05,-2.410142042208463e-05,2.834396218531765e-05
-5.451530159916729e-05,3.2890417060116306e-05,-2.620285340526607e-05,2.9636694307555445e-05
-5.434575359686278e-05,3.1785497412784025e-05,-2.7635765945888124e-05,2.8936883609276265e-05
-4.928352063870989e-05,3.346703670104034e-05,-2.699616197787691e-05,2.6579557015793398e-05
-4.073135642101988e-05,3.5912980820285156e-05,-2.5438748707529157e-05,2.4774933990556747e-05
-3.340034527354874e-05,3.8142552511999384e-05,-2.3884047550382093e-05,2.496026900189463e-05
-3.415427272557281e-05,4.058287959196605e-05,-2.3094997231964953e-05,2.4232082068920135e-05
-4.093186726095155e-05,4.916426769341342e-05,-2.1870439013582654e-05,2.3668075300520286e-05
-4.69464466732461e-05,6.642141670454293e-05,-2.0532857888611034e-05,2.4154374841600657e-05
-5.0026221288135275e-05,8.107715984806418e-05,-2.2844971681479365e-05,2.3321781554841436e-05
-5.248104935162701e-05,7.868597458582371e-05,-2.8382075470290147e-05,2.0582312572514638e-05
-5.322559445630759e-05,5.6709573982516304e-05,-3.397301406948827e-05,1.7313737771473825e-05
-5.03814808325842e-05,2.9260929295560345e-05,-3.3580890885787085e-05,1.4012806786922738e-05
-4.6343280700966716e-05,1.2985926332476083e-05,-3.0530656658811495e-05,1.309346771449782e-05
-4.506167897488922e-05,7.752679266559426e-06,-2.9452890885295346e-05,1.4692882359668147e-05
-4.597365841618739e-05,2.0471889001782984e-06,-2.785152719297912e-05,1.615343353478238e-05
-4.527539567789063e-05,-7.926942998892628e-06,-2.2397418433683924e-05,1.744707151374314e-05
-4.033902223454788e-05,-1.867879655037541e-05,-1.5511597666773014e-05,1.9980394426966086e-05
-3.465996269369498e-05,-2.5307082978542894e-05,-1.2962652363057714e-05,2.389894871157594e-05
-3.3237294701393694e-05,-2.7078629500465468e-05,-1.4105973605182953e-05,2.627440517244395e-05
-3.4080014302162454e-05,-2.4315857444889843e-05,-1.5483754395972937e-05,2.4024247977649793e-05
-3.2972613553283736e-05,-1.6911428701860132e-06,-1.8829592590918764e-05,2.0640718503273092e-05
-3.533063500071876e-05,4.635906225303188e-05,-2.1592171833617613e-05,1.909318962134421e-05
-4.273698141332716e-05,9.084663179237396e-05,-2.0279550881241448e-05,1.859251642599702e-05
-4.738393545267172e-05,0.00010456050949869677,-1.775989767338615e-05,2.0569947082549334e-05
-4.961330341757275e-05,9.11076131160371e-05,-2.000259337364696e-05,2.3662363673793152e-05
-5.3507228585658595e-05,6.971735274419188e-05,-2.299779407621827e-05,2.6089814127772115e-05
-6.002808004268445e-05,5.140690700500272e-05,-2.5776280381251127e-05,3.034155633940827e-05
-6.543315248563886e-05,4.687064210884273e-05,-2.812650564010255e-05,2.8996550099691376e-05
-6.872068479424343e-05,5.247987064649351e-05,-2.8049835236743093e-05,2.103187216562219e-05
-7.108026329660788e-05,5.189077273826115e-05,-2.7653275537886657e-05,1.7182217561639845e-05
-7.16403519618325e-05,4.1806688386714086e-05,-2.749377745203674e-05,1.8930604710476473e-05
-6.960489554330707e-05,3.3150103263324127e-05,-2.6036403141915798e-05,2.2070469640311785e-05
-6.473928078776225e-05,3.551398549461737e-05,-2.4525676053599454e-05,2.615274570416659e-05
-6.024105823598802e-05,4.2584422772051767e-05,-2.615183257148601e-05,2.886985930672381e-05
-5.5462187447119504e-05,4.523107418208383e-05,-2.602949462016113e-05,2.8944656150997616e-05
-5.108633922645822e-05,3.995964289060794e-05,-2.246995791210793e-05,2.6659463401301764e-05
-4.9441950977779925e-05,3.1205141567625105e-05,-1.8956727217300795e-05,2.574046447989531e-05
-4.972352326149121e-05,2.229050915047992e-05,-1.861076452769339e-05,2.816379492287524e-05
-4.824077768716961e-05,1.3650805158249568e-05,-2.1342526451917365e-05,3.2291485695168376e-05
-4.5196029532235116e-05,1.0399107850389555e-05,-2.3257836801349185e-05,3.445881884545088e-05
-4.3101495975861326e-05,1.4576934518117923e-05,-1.9229657482355833e-05,3.111864498350769e-05
-4.2103652958758175e-05,1.968604192370549e-05,-1.4164427739160601e-05,2.5688277673907578e-05
-4.050783172715455e-05,2.0264660633984022e-05,-1.2732386494462844e-05,2.230105019407347e-05
-3.6272878787713125e-05,1.3438630958262365e-05,-1.328804501099512e-05,1.934770443767775e-05
-3.555648436304182e-05,4.46152671429445e-06,-1.6365158444386907e-05,1.7304078937740996e-05
-4.212747808196582e-05,9.061542186827864e-06,-2.3439353753929026e-05,1.884109224192798e-05
-5.003791375202127e-05,2.9274173357407562e-05,-3.1124745873967186e-05,1.9483166397549212e-05
-5.4298823670251295e-05,4.6617453335784376e-05,-3.2357285817852244e-05,1.7059166566468775e-05
-5.5708038416923955e-05,4.732283923658542e-05,-2.900256913562771e-05,1.4991735042713117e-05
-5.343975135474466e-05,3.9210743125295267e-05,-3.0760722438571975e-05,1.5775714928167872e-05
-4.828225792152807e-05,2.5921701308107004e-05,-3.1614676117897034e-05,1.4124240806268062e-05
-4.415000876178965e-05,1.1443664334365167e-05,-2.9288717996678315e-05,1.4325939446280245e-05
-4.146649735048413e-05,6.758482868463034e-06,-3.0302884624688886e-05,1.7627420675125904e-05
-4.3993826693622395e-05,1.1325518244120758e-05,-3.305655991425738e-05,2.0383988157846034e-05
-4.9077527364715934e-05,1.7337752069579437e-05,-3.600193667807616e-05,2.0417395717231557e-05
-4.906502726953477e-05,2.0901272364426404e-05,-3.526099681039341e-05,1.775096643541474e-05
-4.778760558110662e-05,2.3455508198821917e-05,-3.209888018318452e-05,1.632260318729095e-05
-4.931888179271482e-05,2.212417166447267e-05,-2.6562558559817262e-05,1.6474592484883033e-05
-5.086013698019087e-05,2.186141318816226e-05,-2.1870066120754927e-05,1.6501293430337682e-05
-4.694014205597341e-05,2.3319335014093667e-05,-2.0190795112284832e-05,1.5255597645591479e-05
-4.153965710429475e-05,2.5637284124968573e-05,-2.224910531367641e-05,1.7088097592932172e-05
-4.022264329250902e-05,2.8126347388024442e-05,-2.8218144507263787e-05,1.972418795048725e-05
-4.234036896377802e-05,2.8428365112631582e-05,-2.9769369575660676e-05,1.9499439076753333e-05
-4.294014070183039e-05,3.056646164623089e-05,-2.581507396826055e-05,1.8627999452291988e-05
-4.07114603149239e-05,3.2943946280283853e-05,-2.140491415048018e-05,2.2181311578606255e-05
-3.856255716527812e-05,3.258371725678444e-05,-2.0521967599052005e-05,2.642436265887227e-05
-3.8846443203510717e-05,3.242627644794993e-05,-2.0246861822670326e-05,2.6071771571878344e-05
-4.1688628698466346e-05,3.480141458567232e-05,-1.718513885862194e-05,2.2964452000451274e-05
-4.565325434668921e-05,3.566656960174441e-05,-1.3497613508661743e-05,2.1069230569992214e-05
-4.72252067993395e-05,3.5825545637635514e-05,-1.3418771231954452e-05,2.1359855963964947e-05
-4.580804306897335e-05,3.460562584223226e-05,-1.589497333043255e-05,2.3594926460646093e-05
-4.7501653170911595e-05,3.0049306587898172e-05,-2.0348781617940404e-05,2.646924440341536e-05
-5.023205449106172e-05,2.685479739739094e-05,-2.7224559744354337e-05,2.6780133339343593e-05
-5.2119492465863004e-05,2.88601077045314e-05,-3.060605376958847e-05,2.610697083582636e-05
-5.444099224405363e-05,2.9153128707548603e-05,-2.838529326254502e-05,2.7697513360180892e-05
-5.340233474271372e-05,3.237268902012147e-05,-2.5851295504253358e-05,2.9877826818847097e-05
-4.6985867811599746e-05,4.085511318407953e-05,-2.4127091819536872e-05,3.016291702806484e-05
-4.2452029447304085e-05,4.3602194637060165e-05,-2.3584238078910857e-05,3.108504097326659e-05
-4.629620525520295e-05,5.023128687753342e-05,-2.6173140213359147e-05,3.369045225554146e-05
-5.295315713738091e-05,6.69819928589277e-05,-2.8151049264124595e-05,3.44856089213863e-05
-5.8636771427700296e-05,7.438215834554285e-05,-3.0347298888955265e-05,3.2080984965432435e-05
-6.254149047890678e-05,6.212682637851685e-05,-3.2401116186520085e-05,3.079762973356992e-05
-6.549824320245534e-05,4.6715034841327e-05,-3.227753040846437e-05,2.9410824936348945e-05
-7.092158193700016e-05,3.5407392715569586e-05,-2.8386753911036067e-05,2.6862180675379932e-05
-7.45472134440206e-05,2.4068949642241932e-05,-2.368847890465986e-05,2.6579882614896633e-05
-7.250985800055787e-05,1.9640610844362527e-05,-2.195024717366323e-05,2.826560739777051e-05
-6.796517118345946e-05,2.2478228856925853e-05,-2.50722896453226e-05,2.8654887501033954e-05
-6.467330968007445e-05,2.2626036297879182e-05,-2.9881903174100444e-05,2.7866884920513257e-05
-6.330924952635542e-05,1.5507877833442762e-05,-3.1483043130720034e-05,2.5734552764333785e-05
-6.643075903411955e-05,7.490879397664685e-06,-3.0277029509306885e-05,2.5656900106696412e-05
-6.865728937555104e-05,6.3963552747736685e-06,-2.8916589144500904e-05,3.0003888241481036e-05
-6.464564648922533e-05,9.779754691408016e-06,-2.9677143174922094e-05,3.3606022043386474e-05
-5.8241552324034274e-05,1.1287766938039567e-05,-2.869594027288258e-05,3.140877015539445e-05
-5.747088653151877e-05,1.1725760487024672e-05,-2.5582790840417147e-05,2.5543253286741674e-05
-5.88328912272118e-05,1.6702095308573917e-05,-2.3690752641414292e-05,2.3696540665696375e-05
-5.7343015214428306e-05,2.5079514671233483e-05,-2.572296216385439e-05,2.617944119265303e-05
-5.66223643545527e-05,3.2094158086692914e-05,-2.887815935537219e-05,2.863381632778328e-05
-5.6313172535737976e-05,3.408089833101258e-05,-2.9033690225332975e-05,3.0940962460590526e-05
-5.6503096857341006e-05,3.33058851538226e-05,-2.667188164195977e-05,3.071565515710972e-05
-6.040637526893988e-05,3.524788553477265e-05,-2.6251020244671963e-05,2.638038495206274e-05
-6.431456858990714e-05,3.7205776607152075e-05,-2.7525744371814653e-05,2.3959200916578993e-05
-6.57365599181503e-05,3.636502515291795e-05,-2.5166822524624877e-05,2.7057247280026786e-05
-6.834793748566881e-05,3.241691956645809e-05,-2.3631984731764533e-05,3.291655229986645e-05
-6.658359779976308e-05,2.5129173081950285e-05,-2.342743391636759e-05,3.8103386032162234e-05
-6.0777314502047375e-05,2.1209210899542086e-05,-2.405169107078109e-05,4.4556596549227834e-05
-5.360825889511034e-05,2.2017555238562636e-05,-2.5896246370393783e-05,4.306782648200169e-05
-4.9847254558699206e-05,2.398792639723979e-05,-2.7253368898527697e-05,3.412310252315365e-05
-5.2278657676652074e-05,2.370598667766899e-05,-3.059005757677369e-05,2.835944360413123e-05
-5.670994505635463e-05,2.454240166116506e-05,-3.7125581002328545e-05,2.628926267789211e-05
-6.120563193690032e-05,3.0139799491735175e-05,-4.351203824626282e-05,2.6277903089066967e-05
-6.0617887356784195e-05,3.836153700831346e-05,-4.4310480006970465e-05,2.6321486075175926e-05
-5.594132380792871e-05,4.564670962281525e-05,-4.296326733310707e-05,2.6597957912599668e-05
-5.0960232329089195e-05,4.6052686229813844e-05,-4.010478369309567e-05,2.607653550512623e-05
-4.8514146328670904e-05,4.390148023958318e-05,-3.657932029454969e-05,2.478745773260016e-05
-4.9152204155689105e-05,4.426331724971533e-05,-3.297501098131761e-05,2.2411622921936214e-05
-4.9405112804379314e-05,4.958933641319163e-05,-3.170873242197558e-05,2.0200426661176607e-05
-4.8724119551479816e-05,5.305040394887328e-05,-3.0282661100500263e-05,2.0316616428317502e-05
-4.479548806557432e-05,5.0228867621626705e-05,-2.5272527636843733e-05,2.3602160581503995e-05
-3.8358193705789745e-05,4.421029007062316e-05,-2.0277970179449767e-05,2.5497849492239766e-05
-3.170117997797206e-05,3.873298192047514e-05,-1.9438635717961006e-05,2.3415545001626015e-05
-2.9240505682537332e-05,3.718996958923526e-05,-2.2415630155592225e-05,2.1525725969695486e-05
-3.136433588224463e-05,3.902047319570556e-05,-2.447266706440132e-05,2.2437312509282492e-05
-3.425574686843902e-05,3.872033266816288e-05,-2.4605504222563468e-05,2.351662260480225e-05
-3.592069333535619e-05,3.316756192361936e-05,-2.3710919776931405e-05,2.2883739802637137e-05
-3.7348116165958345e-05,2.8072350687580183e-05,-2.4448214389849454e-05,2.0653715182561427e-05
-3.801750426646322e-05,3.0387782317120582e-05,-2.4388235033256933e-05,1.9309209164930508e-05
-3.6688117688754573e-05,3.663948882604018e-05,-2.3268285076483153e-05,2.2069141778047197e-05
-3.579767144401558e-05,3.8264650356722996e-05,-2.1013791410950944e-05,2.3911432435852475e-05
-3.2340522011509165e-05,3.864119207719341e-05,-1.7814014427131042e-05,2.3836535547161475e-05
-2.6216059268335812e-05,3.919884329661727e-05,-1.4650107004854362e-05,2.4764693080214784e-05
-2.523708280932624e-05,3.5321856557857245e-05,-1.2245251127751544e-05,2.4623666831757873e-05
-2.935116754088085e-05,3.173674485879019e-05,-1.332887950411532e-05,2.49564564001048e-05
-3.307963561383076e-05,3.078185181948356e-05,-1.779314516170416e-05,2.3480182790081017e-05
-3.525495412759483e-05,2.6548832465778105e-05,-2.2006772269378416e-05,2.117203075613361e-05
-4.0036138670984656e-05,2.4741815650486387e-05,-2.7198964744457044e-05,2.448896339046769e-05
-4.770845771417953e-05,2.919774124165997e-05,-3.117068990832195e-05,2.738361399678979e-05
-5.25551731698215e-05,3.927707075490616e-05,-3.143813228234649e-05,2.6047322535305284e-05
-5.2319486712804064e-05,5.1065795560134575e-05,-2.9483393518603407e-05,2.205882810812909e-05
-4.913258817396127e-05,6.646698602708057e-05,-2.5589530196157284e-05,1.8925942640635185e-05
-4.746025297208689e-05,7.998214277904481e-05,-2.3538830646430142e-05,1.6422545741079375e-05
-5.0013411964755505e-05,7.770274532958865e-05,-2.556013896537479e-05,1.299776431551436e-05
-5.764958041254431e-05,6.207913247635588e-05,-2.7903004593099467e-05,1.3301565559231676e-05
-6.448021304095164e-05,4.303600508137606e-05,-2.724717887758743e-05,1.7532549463794567e-05
-6.702107930323109e-05,2.0223567844368517e-05,-2.5554531021043658e-05,1.939397770911455e-05
-6.568123353645205e-05,-7.195670150395017e-06,-2.62784324149834e-05,1.695348328212276e-05
-6.187113467603922e-05,-3.3077802072511986e-05,-2.7829697501147166e-05,1.5587917005177587e-05
-5.749474803451449e-05,-4.901069769402966e-05,-2.6951338440994732e-05,1.773824442352634e-05
-5.6553173635620624e-05,-4.6586530515924096e-05,-2.398121614533011e-05,1.9254606741014868e-05
-5.799255086458288e-05,-2.9799763069604523e-05,-2.106833562720567e-05,1.7932610717252828e-05
-5.8373454521643e-05,-8.328042895300314e-06,-2.1104884581291117e-05,1.7950358596863225e-05
-5.648606747854501e-05,1.3561225387093145e-05,-2.3549244360765442e-05,2.1315701815183274e-05
-5.301048076944426e-05,3.1439773010788485e-05,-2.5072899006772786e-05,2.5254204956581816e-05
-5.275854709907435e-05,3.8781246985308826e-05,-2.3130927729653195e-05,2.5706132873892784e-05
-5.2753148338524625e-05,4.059648927068338e-05,-1.9934783267672174e-05,2.1290503354975954e-05
-5.1486123993527144e-05,4.0685732528800145e-05,-1.976992643903941e-05,1.8271100998390466e-05
-5.2781466365559027e-05,3.856667171930894e-05,-2.3817225155653432e-05,1.8060942238662392e-05
-5.202323882258497e-05,4.176099901087582e-05,-2.945924825326074e-05,1.8814900613506325e-05
-5.083862561150454e-05,5.514401709660888e-05,-3.368250327184796e-05,1.911335675686132e-05
-4.925503890262917e-05,7.129248842829838e-05,-3.6304376408224925e-05,1.8541271856520325e-05
-4.428115062182769e-05,8.081367559498176e-05,-3.567544263205491e-05,1.874043846328277e-05
-4.47434613306541e-05,8.008190343389288e-05,-3.319717143313028e-05,1.6225088984356262e-05
-4.806684592040256e-05,7.590711174998432e-05,-3.216898403479718e-05,1.4945725524739828e-05
-4.776749119628221e-05,7.18648370821029e-05,-3.274163100286387e-05,1.4550465493812226e-05
-4.765653284266591e-05,6.979397585382685e-05,-3.3848256862256676e-05,1.3938371012045536e-05
-5.261916157905944e-05,6.868498894618824e-05,-3.2960768294287845e-05,1.4840232324786484e-05
-5.874079215573147e-05,6.519923044834286e-05,-3.0745999538339674e-05,1.4496919902740046e-05
-6.099114762037061e-05,5.894781497772783e-05,-2.86495251202723e-05,1.097013500839239e-05
-5.890584361623041e-05,5.138177948538214e-05,-2.861331813619472e-05,1.0433524039399344e-05
-5.42703055543825e-05,4.5942768338136375e-05,-3.004095378855709e-05,1.5633053408237174e-05
-5.104752563056536e-05,3.850664143101312e-05,-3.157924220431596e-05,2.102218786603771e-05
-5.1848146540578455e-05,2.303598193975631e-05,-3.097724402323365e-05,2.3213575332192704e-05
-5.3410647524287924e-05,8.707575034350157e-06,-2.9896707928855903e-05,2.394122384430375e-05
-5.1159786380594596e-05,7.07257458998356e-06,-2.8976413886994123e-05,2.506873534002807e-05
-4.716920375358313e-05,1.2257188245712314e-05,-2.5830759113887325e-05,2.3542130293208174e-05
-4.6499219024553895e-05,1.8902959709521383e-05,-2.1673449737136252e-05,2.0658555513364263e-05
-4.988658838556148e-05,2.789381869661156e-05,-1.9480814444250427e-05,1.9670567780849524e-05
-5.239709571469575e-05,3.664216274046339e-05,-1.9809485820587724e-05,2.268884054501541e-05
-5.024566053180024e-05,4.165112113696523e-05,-2.1389316316344775e-05,2.761983523669187e-05
-4.4063152017770335e-05,4.7798494051676244e-05,-2.362974737479817e-05,2.924620821431745e-05
-3.968278906540945e-05,5.09474630234763e-05,-2.3056933059706353e-05,2.6732986952993087e-05
-4.136221468797885e-05,4.67329919047188e-05,-1.987247378565371e-05,2.4003851649467833e-05
-4.3893393012695014e-05,3.8158450479386374e-05,-1.839683136495296e-05,2.3180344214779325e-05
-4.387115768622607e-05,2.592667988210451e-05,-1.867343053163495e-05,2.5083074433496222e-05
-4.562928734230809e-05,1.4858747817925178e-05,-2.046441295533441e-05,2.932111055997666e-05
-4.8592064558761194e-05,6.855433639429975e-06,-2.5992889277404174e-05,3.235154508729465e-05
-4.875243394053541e-05,9.283099643653259e-06,-3.1391002266900614e-05,2.9644583264598623e-05
-4.7012512368382886e-05,1.7063310224330053e-05,-2.9728662411798723e-05,2.574224527052138e-05
-4.4474909373093396e-05,1.9402650650590658e-05,-2.4280876459670253e-05,2.398383367108181e-05
-4.286684998078272e-05,1.747664100548718e-05,-2.293382931384258e-05,2.0419589418452233e-05
-4.3104722863063216e-05,1.5609959518769756e-05,-2.2372210878529586e-05,1.8281731172464788e-05
-4.4017968320986256e-05,2.1169324099901132e-05,-2.1422065401566215e-05,2.1402935090009123e-05
-4.838474706048146e-05,3.2503739930689335e-05,-2.071803464787081e-05,2.3822271032258868e-05
-5.665740536642261e-05,4.805117714568041e-05,-2.125052924384363e-05,2.6165838789893314e-05
-6.215854227775708e-05,6.334755744319409e-05,-2.2103680748841725e-05,2.8438467779778875e-05
-6.23407686362043e-05,7.818784069968387e-05,-2.226799915661104e-05,2.9535194698837586e-05
-6.208875129232183e-05,8.752665598876774e-05,-2.3240516384248622e-05,3.0276956749730743e-05
-6.264952389756218e-05,8.19828492240049e-05,-2.4591789042460732e-05,2.9535216526710428e-05
-6.107718945713714e-05,6.472466338891536e-05,-2.5555038519087248e-05,2.7099920771433972e-05
-5.7237426517531276e-05,4.198361057206057e-05,-2.6168901968048885e-05,2.3754995709168725e-05
-5.181552842259407e-05,1.1957039532717317e-05,-2.8087499231332913e-05,2.268481330247596e-05
-4.599253588821739e-05,-2.551851503085345e-05,-3.0298922865767963e-05,2.46226027229568e-05
-4.082771192770451e-05,-5.4400596127379686e-05,-3.3560248994035646e-05,2.5922410713974386e-05
-3.6459274269873276e-05,-6.415405368898064e-05,-3.723810368683189e-05,2.513041727070231e-05
-3.0945931939641014e-05,-6.582871719729155e-05,-3.6718713090522215e-05,2.7647591196000576e-05
-2.5290099074481986e-05,-6.390744965756312e-05,-3.219712743884884e-05,3.149591793771833e-05
-2.4591568944742903e-05,-4.424314829520881e-05,-2.9624956368934363e-05,3.1658179068472236e-05
-2.507677345420234e-05,-9.877077900455333e-06,-2.8169659344712272e-05,2.8413560357876122e-05
-2.0723027773783542e-05,2.0742842025356367e-05,-2.4723716705921106e-05,2.654539821378421e-05
-1.7212072634720244e-05,4.840758992941119e-05,-1.7837684936239384e-05,2.6815032470040023e-05
-2.363644125580322e-05,9.088858496397734e-05,-1.16345136120799e-05,2.9896487831138074e-05
-3.4291013434994966e-05,0.00014250933600123972,-1.1847099813167006e-05,3.547213418642059e-05
-4.894317680737004e-05,0.00016716094978619367,-1.6021223927964456e-05,3.400533751118928e-05
-6.709717854391783e-05,0.0001422568311681971,-2.1235766325844452e-05,3.009383726748638e-05
-7.999685476534069e-05,8.870760211721063e-05,-2.3185075406217948e-05,3.201128856744617e-05
-8.383619569940493e-05,3.146134258713573e-05,-2.100420169881545e-05,3.508029112708755e-05
-7.53846688894555e-05,-1.1164035640831571e-05,-1.9592831449699588e-05,3.719127562362701e-05
-6.313069025054574e-05,-3.458467836026102e-05,-2.1151548935449682e-05,3.6438650568015873e-05
-5.0154212658526376e-05,-4.714940951089375e-05,-2.4636436137370765e-05,3.537574229994789e-05
-4.207576421322301e-05,-4.6714812924619764e-05,-2.7690086426446214e-05,3.185487003065646e-05
-4.481674113776535e-05,-3.077865767409094e-05,-2.775268512777984e-05,2.6173971491516568e-05
-5.4949181503616273e-05,-1.1324459592287894e-06,-2.7110378141514957e-05,2.1826892407261766e-05
-6.599134212592617e-05,2.8803935492760502e-05,-3.0875227821525186e-05,1.9523205992300063e-05
-7.096567424014211e-05,5.138240521773696e-05,-3.468810973572545e-05,1.898753544082865e-05
-6.983383354963735e-05,6.420218414859846e-05,-3.4386121114948764e-05,2.0703593690996058e-05
-6.590874545508996e-05,6.582414789590985e-05,-3.2721745810704306e-05,2.462621523591224e-05
-6.35132091701962e-05,6.366072193486616e-05,-2.9735097996308468e-05,2.655525713635143e-05
-6.264875264605507e-05,6.75346891512163e-05,-2.625620982144028e-05,2.5444564016652294e-05
-6.336528167594224e-05,7.214274228317663e-05,-2.4504930479452014e-05,2.5373177777510136e-05
-6.448925705626607e-05,6.087399015086703e-05,-2.4077569833025336e-05,2.695189141377341e-05
-6.691524322377518e-05,3.656828266684897e-05,-2.265673356305342e-05,2.5991021175286733e-05
-6.931288226041943e-05,2.1135661881999113e-05,-2.1709811335313134e-05,2.2715812519891188e-05
-6.927966023795307e-05,2.0819021301576868e-05,-2.3810200218576938e-05,1.6038397006923333e-05
-6.579314504051581e-05,2.342146217415575e-05,-2.7294847313896753e-05,1.038145364873344e-05
-6.227089033927768e-05,2.1997244402882643e-05,-2.9579356123576872e-05,9.495001904724631e-06
-5.9122874517925084e-05,1.738944229146e-05,-2.886758193199057e-05,1.0499424206500407e-05
-5.47633899259381e-05,1.2859938578912988e-05,-2.706604209379293e-05,1.1523541616043076e-05
-5.2737272199010476e-05,1.067706398316659e-05,-2.616591336845886e-05,1.3398174814938102e-05
-5.267384403850883e-05,1.4227291103452444e-05,-2.807993041642476e-05,1.5320349120884202e-05
-5.187226997804828e-05,2.183900505769998e-05,-3.264553379267454e-05,1.2391065865813289e-05
-4.9611535359872505e-05,2.4703822418814525e-05,-3.478158760117367e-05,9.82138590188697e-06
-4.7350618842756376e-05,2.7726493499358185e-05,-3.3346885174978524e-05,1.0073965313495137e-05
-4.814523344975896e-05,3.2827370887389407e-05,-3.088795347139239e-05,9.480584594712127e-06
-5.1876977522624657e-05,3.189054041285999e-05,-3.0509885618812405e-05,1.0429322173877154e-05
-5.84311674174387e-05,3.2204359740717337e-05,-3.3631979022175074e-05,1.1004133739334065e-05
-6.460458826040849e-05,3.425974500714801e-05,-3.362376810400747e-05,1.334752141701756e-05
-6.464160833274946e-05,3.429622665862553e-05,-2.8366290280246176e-05,1.7138798284577206e-05
-6.046241833246313e-05,3.2231455406872556e-05,-2.4472710720147006e-05,2.140596552635543e-05
-5.553977098315954e-05,2.979742203024216e-05,-2.3820264686946757e-05,2.3058641090756282e-05
-5.4284013458527625e-05,2.616227175167296e-05,-2.4807251975289546e-05,2.0954048522980884e-05
-5.622603930532932e-05,2.3529224563390017e-05,-2.2893776986165904e-05,1.8239905330119655e-05
-5.782085281680338e-05,2.5372186428285204e-05,-2.178332579205744e-05,1.9844052076223306e-05
-5.587240957538597e-05,3.0075501854298636e-05,-2.23661645577522e-05,2.610633055155631e-05
-5.1878330850740895e-05,3.574898437364027e-05,-2.1710413420805708e-05,3.183237640769221e-05
-4.5675602450501174e-05,3.598866533138789e-05,-2.1458732589962892e-05,3.3188021916430444e-05
-3.900579395121895e-05,3.105461291852407e-05,-2.0926243450958282e-05,3.048417784157209e-05
-3.289004598627798e-05,2.813133323797956e-05,-1.7821392248151824e-05,2.73847981588915e-05
-2.4597346055088565e-05,3.072277831961401e-05,-1.2922578207508195e-05,2.6557276214589365e-05
-1.6837600924191065e-05,3.4738357499009e-05,-9.735073945194017e-06,2.827403113769833e-05
-1.3259849765745457e-05,3.8499809306813404e-05,-7.794103112246376e-06,2.7900478016817942e-05
-1.4163264495437033e-05,4.1839473851723596e-05,-9.367091479361989e-06,2.7976515411864966e-05
-1.7755146473064087e-05,4.624825305654667e-05,-1.3833920093020424e-05,3.0186529329512268e-05
-1.996145147131756e-05,4.814079511561431e-05,-1.9429277017479762e-05,3.137556268484332e-05
-2.229828533018008e-05,4.763332617585547e-05,-2.439327545289416e-05,3.175473102601245e-05
-2.5250110411434434e-05,4.555667328531854e-05,-2.5840521630016156e-05,3.20120707328897e-05
-2.9170709240133874e-05,4.2624342313501984e-05,-2.491691520845052e-05,3.1786108593223616e-05
-3.650599319371395e-05,4.4934855395695195e-05,-2.334464807063341e-05,3.169455158058554e-05
-3.9500828279415146e-05,4.9519367166794837e-05,-2.079519435937982e-05,3.17150006594602e-05
-3.933997868443839e-05,5.585276448982768e-05,-2.1371157345129177e-05,3.335534347570501e-05
-4.1547940782038495e-05,6.39638165012002e-05,-2.5418257791898213e-05,3.337725138408132e-05
-4.6265337005024776e-05,6.752034823875874e-05,-2.9536702641053125e-05,3.167843533447012e-05
-4.937775156577118e-05,6.37359480606392e-05,-3.099663445027545e-05,3.159907282679342e-05
-5.31904588569887e-05,5.8419165725354105e-05,-3.095536885666661e-05,3.357345485710539e-05
-5.796171535621397e-05,5.5754695495124906e-05,-3.391663631191477e-05,3.408340853638947e-05
-6.328094605123624e-05,5.154635073267855e-05,-3.53473296854645e-05,3.242073580622673e-05
-6.79722215863876e-05,3.9779140934115276e-05,-3.324642239022069e-05,3.3241882192669436e-05
-6.868447962915525e-05,1.7140720956376754e-05,-3.167528848280199e-05,3.795578595600091e-05
-6.736651266692206e-05,-1.0450969966768753e-05,-3.327478043502197e-05,3.8964768464211375e-05
-6.587825919268653e-05,-2.6661931769922376e-05,-3.510703390929848e-05,3.270424349466339e-05
-6.468159699579701e-05,-1.962291935342364e-05,-3.3581080060685053e-05,2.5229061066056602e-05
-6.182325887493789e-05,-4.260980972503603e-07,-3.1466068321606144e-05,2.26389220188139e-05
-6.11903888056986e-05,1.0776580893434584e-05,-3.220227881683968e-05,2.662378756213002e-05
-6.357909296639264e-05,1.1606265616137534e-05,-3.433830715948716e-05,3.197644400643185e-05
-6.536698492709547e-05,1.3147751815267839e-05,-3.480488885543309e-05,3.1628933356842026e-05
-6.561532063642517e-05,1.8110797100234777e-05,-3.302561162854545e-05,2.450332249281928e-05
-6.703512190142646e-05,1.863490979303606e-05,-3.0073704692767933e-05,1.7993743313127197e-05
-6.741351535310969e-05,1.4195470612321515e-05,-2.8100008421461098e-05,1.6513949958607554e-05
-6.464564648922533e-05,1.1783294212364126e-05,-2.734375448198989e-05,1.9848372176056728e-05
-6.264273542910814e-05,1.5369552784250118e-05,-2.6226565751130693e-05,2.4264752937597223e-05
-6.192912405822426e-05,2.282111563545186e-05,-2.4200255211326294e-05,2.5634355552028865e-05
-6.0016653151251376e-05,2.864292218873743e-05,-2.3421040168614127e-05,2.170049810956698e-05
-5.7663746702019125e-05,2.9386206733761355e-05,-2.5925934096449055e-05,1.5918665667413734e-05
-5.4692030971636996e-05,2.9055547202005982e-05,-2.7338948711985722e-05,1.3158927686163224e-05
-5.2105482609476894e-05,3.1626048439648e-05,-2.2188267394085415e-05,1.275080103368964e-05
-5.059286195319146e-05,3.62685568688903e-05,-1.8949756849906407e-05,1.2482405509217642e-05
-4.781844836543314e-05,3.729651143657975e-05,-2.097045762639027e-05,1.3180980204197112e-05
-4.51047599199228e-05,3.1516017770627514e-05,-2.192282408941537e-05,1.432618319086032e-05
-4.455307498574257e-05,2.7638114261208102e-05,-2.0036652131238952e-05,1.39309140649857e-05
-4.0986837120726705e-05,3.053716864087619e-05,-1.765102570061572e-05,1.0441504855407402e-05
-3.39009529852774e-05,3.5297325666761026e-05,-1.758979124133475e-05,1.0549932994763367e-05
-3.096045111306012e-05,4.133878610446118e-05,-1.650329249969218e-05,1.578169030835852e-05
-3.216405093553476e-05,4.935701872454956e-05,-1.5510735465795733e-05,2.0248722648830153e-05
-3.392213329789229e-05,5.304012302076444e-05,-1.4688264855067246e-05,2.5825598640949465e-05
-3.183435546816327e-05,5.241683902568184e-05,-1.551541754452046e-05,2.9491260647773743e-05
-2.743414370343089e-05,5.2392075303941965e-05,-1.7362262951792218e-05,3.1590807338943705e-05
-2.6763309506350197e-05,5.192313255975023e-05,-1.8726774214883335e-05,3.2265335903503e-05
-2.9739445380982943e-05,5.098765541333705e-05,-1.9071412680204958e-05,2.8882419428555295e-05
-3.0094373869360425e-05,5.2455270633799955e-05,-1.6900807167985477e-05,2.4010245397221297e-05
-2.9097509468556382e-05,5.172682358534075e-05,-1.4106070011621341e-05,2.3019681975711137e-05
-3.097298031207174e-05,4.5367392885964364e-05,-1.2598505236383062e-05,2.494789987395052e-05
-3.3809505112003535e-05,3.892614404321648e-05,-1.2579269423440564e-05,2.528330878703855e-05
-3.617376205511391e-05,3.562085112207569e-05,-1.3362432582653128e-05,2.3900778614915907e-05
-3.91204230254516e-05,3.264983752160333e-05,-1.511895334260771e-05,2.2713273210683838e-05
-4.25277030444704e-05,2.7153566406923346e-05,-1.451185016776435e-05,2.2023083147360012e-05
-4.8054989747470245e-05,2.09802710742224e-05,-1.0931115866696928e-05,2.007834154937882e-05
-5.3988351282896474e-05,1.9672892449307255e-05,-9.734731065691449e-06,1.9700661141541786e-05
-5.182392487768084e-05,2.6832849471247755e-05,-1.616978261154145e-05,2.3040953237796202e-05
-4.681233986048028e-05,3.439405554672703e-05,-2.5513074433547445e-05,2.705687984416727e-05
-4.9488946388009936e-05,3.523804116412066e-05,-2.8602582460734993e-05,2.722530007304158e-05
-5.48424941371195e-05,3.307034421595745e-05,-2.660757309058681e-05,2.1860363631276414e-05
-6.269921141210943e-05,3.0171131584211253e-05,-2.615524317661766e-05,1.8821845515049063e-05
-6.331894837785512e-05,2.713629510253668e-05,-2.621249223011546e-05,2.243660856038332e-05
-6.008288255543448e-05,2.619827318994794e-05,-2.64234549831599e-05,2.4359867893508635e-05
-6.294628838077188e-05,2.775173561531119e-05,-2.7856664019054733e-05,2.6032144887722097e-05
-6.488196231657639e-05,3.055828346987255e-05,-2.903449239965994e-05,3.0386527214432135e-05
-6.526416837004945e-05,3.5548320738598704e-05,-3.1546664104098454e-05,3.180186467943713e-05
-5.797204721602611e-05,4.073202580912039e-05,-3.50358423020225e-05,2.845199742296245e-05
-5.54170946998056e-05,3.942078910768032e-05,-3.5085413401247934e-05,2.4735996703384444e-05
-5.7311619457323104e-05,3.6293120501795784e-05,-3.3272866858169436e-05,2.098357435897924e-05
-5.8225876273354515e-05,3.548163658706471e-05,-3.428092168178409e-05,1.6491287169628777e-05
-5.97258003836032e-05,3.335445580887608e-05,-3.91180110455025e-05,1.472693111281842e-05
-6.179119372973219e-05,3.1883730116533116e-05,-4.339812949183397e-05,1.653191247896757e-05
-5.8817066019400954e-05,3.2375723094446585e-05,-4.429841283126734e-05,1.8104747141478583e-05
-5.223204425419681e-05,3.24514476233162e-05,-4.370714304968715e-05,1.801485450414475e-05
-4.922223888570443e-05,3.079160887864418e-05,-4.162100231042132e-05,1.7335907614324242e-05
-5.006011633668095e-05,2.6563293431536295e-05,-3.719743472174741e-05,1.8631999409990385e-05
-5.4155832913238555e-05,2.101912468788214e-05,-3.340137118357234e-05,2.2825683117844164e-05
-5.610140578937717e-05,2.0912091713398695e-05,-3.3188058296218514e-05,2.5850669771898538e-05
-5.459514432004653e-05,2.7455625968286768e-05,-3.359460242791101e-05,2.469879291311372e-05
-5.056003647041507e-05,3.162413486279547e-05,-3.272255344199948e-05,2.229869642178528e-05
-4.7063749661901966e-05,3.0887436878401786e-05,-3.188708069501445e-05,2.2426247596740723e-05
-4.494464155868627e-05,2.999599564645905e-05,-3.151386772515252e-05,2.2669830286758952e-05
-4.720865035778843e-05,2.8128559279139154e-05,-3.0149334634188563e-05,2.3653368771192618e-05
-5.106051321490668e-05,2.814750769175589e-05,-3.0259854611358605e-05,2.6579518817015924e-05
-5.563727972912602e-05,3.2232204830506817e-05,-3.0150178645271808e-05,2.6425990654388443e-05
-5.493327262229286e-05,3.7483365304069594e-05,-2.999480602738913e-05,2.0240217054379173e-05
-5.173236058908515e-05,3.8937596400501207e-05,-3.070391176152043e-05,1.6944331946433522e-05
-5.281293124426156e-05,3.545850995578803e-05,-2.9850067221559584e-05,1.7264799680560827e-05
-5.544711530092172e-05,3.395577732590027e-05,-3.1274241337087005e-05,1.8110840755980462e-05
-5.5598320614080876e-05,3.5514207411324605e-05,-3.1208732252707705e-05,2.189583028666675e-05
-5.625961421173997e-05,3.687419666675851e-05,-2.8355936592561193e-05,2.577264422143344e-05
-5.820814840262756e-05,3.4667849831748754e-05,-2.43571303144563e-05,2.963823681056965e-05
-6.021181616233662e-05,3.463081520749256e-05,-2.2370713850250468e-05,3.0502013032673858e-05
-6.023430614732206e-05,3.776368248509243e-05,-2.4726667106733657e-05,2.734474946919363e-05
-5.6551059969933704e-05,3.85760904464405e-05,-2.806893826345913e-05,2.5241437469958328e-05
-5.381755545386113e-05,3.762264896067791e-05,-3.237695273128338e-05,2.5450022803852335e-05
-5.1218456064816564e-05,3.4722761483862996e-05,-3.5455854231258854e-05,2.5319861379102804e-05
-5.057153248344548e-05,2.9217018891358748e-05,-3.629855200415477e-05,2.3140317352954298e-05
-5.322822471498512e-05,2.4004939405131154e-05,-3.500179809634574e-05,2.147248960682191e-05
-5.946837700321339e-05,2.2881931727170013e-05,-3.4107455576304346e-05,2.082523496937938e-05
-6.580661283805966e-05,2.519246299925726e-05,-3.150791235384531e-05,1.899144444905687e-05
-6.658675556536764e-05,3.091929102083668e-05,-2.6775333026307635e-05,1.824381251935847e-05
-5.807086199638434e-05,3.461338201304898e-05,-2.4084880351438187e-05,2.025761205004528e-05
-4.7058507334440947e-05,3.357560126460157e-05,-2.4268038032460026e-05,2.0699390006484464e-05
-4.27421837230213e-05,3.4730132028926164e-05,-2.5058843675651588e-05,1.962406895472668e-05
-4.466842074180022e-05,4.2403782572364435e-05,-2.495750413800124e-05,1.8566794096841477e-05
-4.997843279852532e-05,5.076134402770549e-05,-2.6338146199123003e-05,1.7055035641533323e-05
-5.3083287639310583e-05,5.2735947974724695e-05,-3.1078561733011156e-05,1.715058351692278e-05
-5.013492045691237e-05,4.751005326397717e-05,-3.620748975663446e-05,1.977814463316463e-05
-4.830973921343684e-05,3.51618327840697e-05,-3.5340970498509705e-05,2.081116872432176e-05
-4.747557613882236e-05,2.4621360353194177e-05,-3.049323640880175e-05,2.0158058759989217e-05
-4.358887963462621e-05,2.33698810916394e-05,-2.783286436169874e-05,2.0529514586087316e-05
-3.8430822314694524e-05,2.0122235582675785e-05,-2.690388646442443e-05,2.1293808458722197e-05
-3.283355908934027e-05,1.204063300974667e-05,-2.2442489353124984e-05,2.4145248971763067e-05
-2.9456008633133024e-05,1.413366021552065e-06,-1.9574014004319906e-05,2.8831120289396495e-05
-3.0380524549400434e-05,-3.35225195158273e-06,-1.971788879018277e-05,3.28441929013934e-05
-3.6028079193783924e-05,4.8270717343257274e-06,-1.9017757949768566e-05,3.2087027648231015e-05
-4.210395854897797e-05,2.078738179989159e-05,-1.9757047994062304e-05,2.740282070590183e-05
-4.801550676347688e-05,3.7890618841629475e-05,-2.2232727133086883e-05,2.338668127777055e-05
-4.9131078412756324e-05,4.8501449782634154e-05,-2.6252704628859647e-05,2.3264532501343638e-05
-4.483437442104332e-05,5.6062206567730755e-05,-2.8156313419458456e-05,2.5851775717455894e-05
-4.3410294892964885e-05,6.270487210713327e-05,-2.7694020900526084e-05,2.7566193239181302e-05
-4.839017492486164e-05,6.980141188250855e-05,-2.5306779207312502e-05,2.8901415134896524e-05
-5.2957620937377214e-05,7.092476153047755e-05,-2.0826595573453233e-05,2.879385465348605e-05
-5.212598625803366e-05,6.14915625192225e-05,-1.8360540707362816e-05,2.8166197807877325e-05
-4.9380505515728146e-05,5.6950459111249074e-05,-2.1087313143652864e-05,2.9732686016359366e-05
-4.677686592913233e-05,6.387379107763991e-05,-2.3363016225630417e-05,3.239677971578203e-05
-4.576522042043507e-05,5.920399780734442e-05,-2.0896985006402247e-05,3.172568176523782e-05
-4.48489336122293e-05,2.900082472478971e-05,-1.8473650925443508e-05,2.9351724151638336e-05
-4.603174966177903e-05,-4.494539552979404e-06,-2.0248127839295194e-05,2.9050343073322438e-05
-4.980130324838683e-05,-1.2084532500011846e-05,-2.374034193053376e-05,2.959571975225117e-05
-5.33297352376394e-05,8.60754880704917e-06,-2.542834226915147e-05,2.874654637707863e-05
-5.6593427871121094e-05,4.861642082687467e-05,-2.4923614546423778e-05,2.571639561210759e-05
-6.019641296006739e-05,9.474204125581309e-05,-2.270806726301089e-05,2.099270568578504e-05
-6.1386963352561e-05,0.00011966862075496465,-2.094111368933227e-05,2.029889583354816e-05
-6.311575998552144e-05,0.000111384317278862,-2.0017545466544107e-05,2.5320830900454894e-05
-6.838988338131458e-05,7.916723552625626e-05,-2.161782504117582e-05,2.6892586902249604e-05
-7.131613529054448e-05,3.7260691897245124e-05,-2.669658715603873e-05,2.3405757019645534e-05
-6.552723789354786e-05,-3.1763704555487493e-06,-3.135752194793895e-05,2.277448402310256e-05
-5.573732414632104e-05,-1.9100405552308075e-05,-3.105549330939539e-05,3.0505745598929934e-05
-5.166563641978428e-05,5.147023330209777e-06,-3.0426566809182987e-05,3.775567893171683e-05
-5.631457315757871e-05,2.7247351681580767e-05,-3.180006751790643e-05,3.636604378698394e-05
-5.7711244153324515e-05,1.1545121196832042e-06,-3.335205838084221e-05,3.2221923902397975e-05
-4.988105138181709e-05,-4.5631702960236e-05,-3.2097635994432494e-05,2.8566719265654683e-05
-4.902988803223707e-05,-6.777075032005087e-05,-2.8438045774237253e-05,2.3225087716127746e-05
-5.771132418885827e-05,-6.063893670216203e-05,-3.0469545890809968e-05,1.7961341654881835e-05
-6.385237793438137e-05,-3.6328645364847034e-05,-3.80178025807254e-05,1.447332942916546e-05
-6.316345388768241e-05,-1.095686911867233e-05,-4.171958062215708e-05,1.4159362763166428e-05
-6.29777496214956e-05,9.029247848957311e-06,-3.669594298116863e-05,1.3673199646291323e-05
-6.156828021630645e-05,2.264042450406123e-05,-2.754878551058937e-05,1.294315643463051e-05
-5.810036964248866e-05,2.7694390155375004e-05,-2.192226929764729e-05,1.6281590433209203e-05
-5.773305383627303e-05,2.8227963412064128e-05,-2.2858253942104056e-05,1.8536527932155877e-05
-5.765877358498983e-05,2.915455297625158e-05,-2.3526259610662237e-05,1.772372161212843e-05
-5.458578380057588e-05,3.1925512303132564e-05,-2.0037428839714266e-05,1.842502570070792e-05
-4.891590288025327e-05,3.390153869986534e-05,-1.584912206453737e-05,2.1433022993733175e-05
-4.3995889427606016e-05,3.4831242373911664e-05,-1.3483931979862973e-05,2.38988250202965e-05
-3.982576527050696e-05,3.427955016377382e-05,-1.259249165741494e-05,2.4506229237886146e-05
-3.7285444705048576e-05,3.419068525545299e-05,-1.1309768524370156e-05,2.3800836061127484e-05
-3.49963920598384e-05,3.632001971709542e-05,-1.0427487723063678e-05,2.1718969946959987e-05
-3.376559470780194e-05,4.131871537538245e-05,-1.0774323527584784e-05,1.9859149688272737e-05
-3.492959149298258e-05,4.2887721065199e-05,-1.1855093362100888e-05,2.010354000958614e-05
-3.301249671494588e-05,3.670770092867315e-05,-1.31047945615137e-05,2.109519118675962e-05
-2.9332353733479977e-05,3.070484672207385e-05,-1.5519040971412323e-05,2.119753662555013e-05
-3.2309137168340385e-05,3.435762118897401e-05,-1.7611015209695324e-05,2.1211919374763966e-05
-3.780873157666065e-05,5.0499424105510116e-05,-1.992044417420402e-05,2.1539775843848474e-05
-4.236956738168374e-05,6.93859692546539e-05,-2.275511906191241e-05,1.965542833204381e-05
-4.502127558225766e-05,7.727781485300511e-05,-2.012175536947325e-05,1.5939083823468536e-05
-4.744781108456664e-05,6.809221667936072e-05,-1.7353966541122645e-05,1.4079134416533634e-05
-5.508089452632703e-05,5.1033708587056026e-05,-1.7254116755793802e-05,1.4978430954215582e-05
-5.7659217418404296e-05,3.945878052036278e-05,-1.977529245777987e-05,1.853254798334092e-05
-5.1278871978865936e-05,3.239171201130375e-05,-2.254012542834971e-05,2.2688294848194346e-05
-4.642895873985253e-05,3.2596068194834515e-05,-1.8738779544946738e-05,2.4803824999253266e-05
-4.7038258344400674e-05,3.45851804013364e-05,-1.2605667507159524e-05,2.502560346329119e-05
-4.879376137978397e-05,3.342418494867161e-05,-1.2181348211015575e-05,2.3568523829453625e-05
-4.944371903548017e-05,3.757342346943915e-05,-1.817206975829322e-05,2.3793889340595342e-05
-4.90586317027919e-05,5.2473133109742776e-05,-2.21867212530924e-05,2.68228686763905e-05
-5.0063124945154414e-05,7.17396687832661e-05,-2.279731779708527e-05,2.9538272428908385e-05
-5.284059079713188e-05,8.02358117653057e-05,-2.4357976144528948e-05,2.9048971555312164e-05
-5.681390757672489e-05,7.63266216381453e-05,-2.815712650772184e-05,2.5428109438507818e-05
-6.16823963355273e-05,7.096220360836014e-05,-2.9360660846577957e-05,2.3437663912773132e-05
-6.273586041061208e-05,7.890778942964971e-05,-2.8209213269292377e-05,2.485016011632979e-05
-5.7450532040093094e-05,9.360675903735682e-05,-2.755443347268738e-05,2.611202944535762e-05
-5.3716052207164466e-05,9.066535130841658e-05,-2.8873781047877856e-05,2.5985860702348873e-05
-5.3479609050555155e-05,6.247591954888776e-05,-3.0617680749855936e-05,2.646634675329551e-05
-5.079227048554458e-05,2.8994078093091957e-05,-2.9996937882970087e-05,2.9130414986866526e-05
-4.565556446323171e-05,3.91831099477713e-06,-2.945196865766775e-05,2.9830980565748177e-05
-4.247450124239549e-05,-1.5379748219856992e-05,-2.9390383133431897e-05,2.8467702577472664e-05
-4.348869697423652e-05,-2.512383071007207e-05,-3.163915971526876e-05,2.9368102332227863e-05
-4.7263067244784907e-05,-1.2869861166109331e-05,-3.7298716051736847e-05,3.129173637717031e-05
-5.114268424222246e-05,1.7396072507835925e-05,-3.951512189814821e-05,3.127503805444576e-05
-5.164913454791531e-05,4.0469076338922605e-05,-3.410689168958925e-05,2.7732945454772562e-05
-5.258819874143228e-05,4.125405757804401e-05,-3.098553861491382e-05,2.2072048523114063e-05
-5.789897113572806e-05,2.7873917133547366e-05,-3.416326944716275e-05,2.0604680685210042e-05
-6.113112613093108e-05,1.71706524270121e-05,-3.7121426430530846e-05,2.4087581550702453e-05
-6.0751695855287835e-05,2.4871118512237445e-05,-3.5823679354507476e-05,2.642210165504366e-05
-6.16349934716709e-05,4.8025554860942066e-05,-3.337034286232665e-05,2.7467232939670794e-05
-6.823772855568677e-05,6.166493403725326e-05,-3.145906521240249e-05,2.923569809354376e-05
-6.97378782206215e-05,6.09823691775091e-05,-3.242007369408384e-05,2.7335061531630345e-05
-6.324505375232548e-05,5.37683445145376e-05,-3.8029182178433985e-05,2.1459025447256863e-05
-6.220265640877187e-05,3.92144029319752e-05,-4.403616185300052e-05,2.0305875295889564e-05
-6.161518103908747e-05,2.0584071535267867e-05,-4.481821451918222e-05,2.3902317479951307e-05
-5.647490979754366e-05,3.0719611459062435e-06,-3.893344182870351e-05,2.6731431717053056e-05
-4.831526166526601e-05,-1.43635697895661e-05,-3.0137143767205998e-05,2.6718453227658756e-05
-4.1700339352246374e-05,-3.7634898035321385e-05,-2.19306366489036e-05,2.4699933419469744e-05
-3.298854426247999e-05,-5.592304660240188e-05,-1.826552215788979e-05,2.1461581127368845e-05
-2.214597952843178e-05,-5.347184924175963e-05,-1.7653712347964756e-05,2.0667277567554265e-05
-1.4006153833179269e-05,-3.187546826666221e-05,-1.758295729814563e-05,2.3916751160868444e-05
-1.1818079656222835e-05,-9.68820859270636e-06,-1.6396530554629862e-05,2.830353878380265e-05
-1.5356956282630563e-05,2.6860982416110346e-06,-1.3983086319058202e-05,2.9616638130391948e-05
-2.0292851331760176e-05,1.0673288670659531e-05,-1.3134442269802094e-05,2.7765705453930423e-05
-2.421329372737091e-05,1.9555811377358623e-05,-1.3060589481028728e-05,2.6870467991102487e-05
-2.4457198378513567e-05,3.0645001970697194e-05,-1.2295641681703273e-05,2.7186282750335522e-05
-2.16438238567207e-05,4.207502934150398e-05,-1.1982400792476255e-05,2.4947759811766446e-05
-2.104575833072886e-05,5.1723218348342925e-05,-1.6401831089751795e-05,2.2846070351079106e-05
-2.654908166732639e-05,5.9806501667480916e-05,-2.286826384079177e-05,2.5532110157655552e-05
-3.429014759603888e-05,6.626393587794155e-05,-2.5198856747010723e-05,2.809537181747146e-05
-4.070961949764751e-05,6.383128493325785e-05,-2.2395905034500174e-05,3.0240120395319536e-05
-4.435720620676875e-05,5.0689661293290555e-05,-1.749847797327675e-05,3.233597817597911e-05
-4.4812077248934656e-05,3.876288974424824e-05,-1.4979767001932487e-05,2.94775418296922e-05
-4.377233926788904e-05,3.998941610916518e-05,-1.806790169212036e-05,2.3706114006927237e-05
-4.343426553532481e-05,4.76339046144858e-05,-2.5037583327502944e-05,1.9429375242907554e-05
-4.226516466587782e-05,5.174861871637404e-05,-2.6229179638903588e-05,1.919195710797794e-05
-4.0883100155042484e-05,4.7640678531024605e-05,-2.6103709387825802e-05,1.856015842349734e-05
-4.151020402787253e-05,4.2852017941186205e-05,-2.7419706384534948e-05,1.6932741345954128e-05
-4.494383028941229e-05,4.314264151616953e-05,-2.5919945983332582e-05,1.7311787814833224e-05
-4.2852603655774146e-05,4.262484799255617e-05,-2.536505962780211e-05,1.594504647073336e-05
-3.88746993849054e-05,3.626605393947102e-05,-2.7060863430961035e-05,1.7242693502339534e-05
-4.1349787352373824e-05,2.972678885271307e-05,-3.070881575695239e-05,1.9607972717494704e-05
-4.894019366474822e-05,2.812481761793606e-05,-3.250358713557944e-05,2.1272369849612005e-05
-5.523887011804618e-05,2.8639589800150134e-05,-3.3561354939593e-05,2.2985806936048903e-05
-5.811187656945549e-05,3.0147739380481653e-05,-3.031499363714829e-05,2.2687449018121697e-05
-6.362552812788635e-05,2.9921475288574584e-05,-2.506091732357163e-05,2.1916168407187797e-05
-7.272350921994075e-05,3.0454453735728748e-05,-2.4528473659302108e-05,2.2926937162992544e-05
-8.075853111222386e-05,3.261447272961959e-05,-2.6805633751791902e-05,2.4211860363720916e-05
-8.178741700248793e-05,3.35948534484487e-05,-2.8010093956254423e-05,2.272265737701673e-05
-7.695003296248615e-05,3.1439674785360694e-05,-2.589696305221878e-05,1.8894743334385566e-05
-7.249818736454472e-05,2.7852594939759e-05,-2.4471613869536668e-05,1.617662564967759e-05
-7.305847975658253e-05,2.51115852734074e-05,-2.4215318262577057e-05,1.757727295625955e-05
-7.446876406902447e-05,2.2925176381249912e-05,-2.6437348424224183e-05,2.139206844731234e-05
-6.837650289526209e-05,2.1223127987468615e-05,-3.070050661335699e-05,2.3940950995893218e-05
-5.598527786787599e-05,2.2615860871155746e-05,-3.289998130640015e-05,2.581433545856271e-05
-4.934918615617789e-05,2.7553234758670442e-05,-3.218526762793772e-05,2.874195524782408e-05
-5.017778676119633e-05,3.1731109629618004e-05,-3.361213020980358e-05,2.945265077869408e-05
-5.112604776513763e-05,3.1818195566302165e-05,-3.64083971362561e-05,2.748927909124177e-05
-5.0701157306320965e-05,2.6716841603047214e-05,-3.6209319659974426e-05,2.486117955413647e-05
-5.370349026634358e-05,2.1400062905740924e-05,-3.3390853786841035e-05,2.2954658561502583e-05
-5.73382931179367e-05,2.1796013243147172e-05,-3.262872269260697e-05,2.4930477593443356e-05
-5.960782800684683e-05,2.393785325693898e-05,-3.1815932743484154e-05,2.9587205062853172e-05
-6.236878834897652e-05,2.592864984762855e-05,-3.1017894798424095e-05,2.950181624328252e-05
-6.279385706875473e-05,2.7838248570333235e-05,-3.254256444051862e-05,2.5508699764031917e-05
-5.8053916291100904e-05,2.8437707442208193e-05,-3.036662565136794e-05,2.5448505766689777e-05
-4.820783215109259e-05,3.071788160013966e-05,-2.397958633082453e-05,2.589518771856092e-05
-4.482976873987354e-05,3.068323712795973e-05,-2.0833891539950855e-05,2.4198941900976934e-05
-5.190724186832085e-05,2.4056840629782528e-05,-2.2239450117922388e-05,2.5507953978376463e-05
-6.014206155668944e-05,1.4706672118336428e-05,-2.339795719308313e-05,2.636884164530784e-05
-6.050762385712005e-05,8.586399417254142e-06,-2.440112984913867e-05,2.4729093638597988e-05
-5.504392902366817e-05,1.4417730199056678e-05,-2.296301317983307e-05,2.1977004507789388e-05
-5.1971648645121604e-05,3.036001908185426e-05,-2.106122519762721e-05,2.072191273327917e-05
-5.1720089686568826e-05,3.988852768088691e-05,-2.028873495873995e-05,2.086171298287809e-05
-5.0449478294467553e-05,3.6632362025557086e-05,-2.1751255189883523e-05,2.2605590856983326e-05
-4.8054578655865043e-05,2.8560396458487958e-05,-2.3423410311806947e-05,2.52616864599986e-05
-5.026809958508238e-05,2.127121842931956e-05,-2.3266418793355115e-05,2.776817200356163e-05
-5.6177828810177743e-05,1.9735805835807696e-05,-2.4117722205119208e-05,2.9547525628004223e-05
-6.0705286159645766e-05,2.5578163331374526e-05,-2.51128676609369e-05,2.9275212000356987e-05
-6.132005364634097e-05,2.8914466383866966e-05,-2.4977811335702427e-05,2.6817973775905557e-05
-5.769777999375947e-05,2.1566822397289798e-05,-2.424192280159332e-05,2.2486125089926645e-05
-5.0795224524335936e-05,1.0196988114330452e-05,-2.3883629182819277e-05,1.8950126104755327e-05
-4.50169354735408e-05,9.978177331504412e-06,-2.398497781541664e-05,1.7789063349482603e-05
-4.56283705716487e-05,2.7915217287954874e-05,-2.4417357053607702e-05,2.1534729967243038e-05
-5.337069524102844e-05,5.291367051540874e-05,-2.464357930875849e-05,2.7332269382895902e-05
-6.239317735889927e-05,5.867350773769431e-05,-2.651879913173616e-05,3.004488826263696e-05
-6.88521031406708e-05,4.1539435187587515e-05,-2.9589786208816804e-05,2.5106575776590034e-05
-7.51586485421285e-05,3.121601912425831e-05,-3.417300104047172e-05,1.720641739666462e-05
-8.175856783054769e-05,3.712121178978123e-05,-3.9191141695482656e-05,1.2967278053110931e-05
-8.262560004368424e-05,4.8060119297588244e-05,-4.058493141201325e-05,1.0109924005519133e-05
-7.724513852735981e-05,6.105461943661794e-05,-3.971239857492037e-05,1.1594785974011756e-05
-7.0813977799844e-05,6.788094469811767e-05,-3.723137706401758e-05,1.5662211808376014e-05
-6.79510849295184e-05,7.217854727059603e-05,-3.3073010854423046e-05,1.8918490241048858e-05
-6.731506437063217e-05,7.888283289503306e-05,-2.9897084459662437e-05,2.0067376681254245e-05
-6.341757398331538e-05,8.273921412182972e-05,-2.8949863917659968e-05,2.2628177248407155e-05
-6.535252759931609e-05,8.703567436896265e-05,-2.8632597604882903e-05,3.1008436053525656e-05
-7.132776227081195e-05,8.973848889581859e-05,-2.7797877919510938e-05,3.6223620554665104e-05
-6.603143992833793e-05,7.023997750366107e-05,-2.949337795143947e-05,3.6437661037780344e-05
-5.021638935431838e-05,1.137132403528085e-05,-3.2902058592299e-05,3.28114656440448e-05
-3.607133839977905e-05,-3.994521830463782e-05,-3.430102879065089e-05,3.0258295737439767e-05
-3.364829171914607e-05,-3.76198768208269e-05,-3.346143785165623e-05,3.359646143508144e-05
-4.621460539055988e-05,-4.880178948951652e-06,-3.066359568038024e-05,3.873887544614263e-05
-6.220108480192721e-05,2.2458905732491985e-05,-2.766674879239872e-05,4.011378041468561e-05
-6.76328781992197e-05,3.8580830732826144e-05,-2.679181307030376e-05,3.846590334433131e-05
-6.020814907969907e-05,5.201618841965683e-05,-2.6361081836512312e-05,3.75878662453033e-05
-5.0892183935502544e-05,6.563802162418142e-05,-2.24941559281433e-05,3.761785774258897e-05
-4.697580516221933e-05,7.575831114081666e-05,-1.9215103748138063e-05,3.52767929143738e-05
-4.935172910336405e-05,7.360899326158687e-05,-2.0124929505982436e-05,3.091900725848973e-05
-5.35719700565096e-05,6.310185563052073e-05,-2.3158598196459934e-05,2.7747724743676372e-05
-5.1842427637893707e-05,5.163902824278921e-05,-2.5418812583666295e-05,2.4722714442759752e-05
-4.367510337033309e-05,3.909233782906085e-05,-2.465177203703206e-05,2.3690883608651347e-05
-3.675172047223896e-05,2.890320865844842e-05,-2.2228439775062725e-05,2.5023005946422927e-05
-3.540014222380705e-05,2.6210491341771558e-05,-2.245998621219769e-05,2.5252102204831317e-05
-3.416721665416844e-05,2.53436101047555e-05,-2.226279138994869e-05,2.4109118385240436e-05
-3.183695662301034e-05,2.528637196519412e-05,-2.1271265723044053e-05,2.0897850845358334e-05
-3.1580435461364686e-05,2.691637200769037e-05,-2.3224132746690884e-05,1.7646720152697526e-05
-3.091741382377222e-05,2.5222158001270145e-05,-2.471218613209203e-05,1.747754322423134e-05
-2.2742548026144505e-05,2.1401177946245298e-05,-2.463902455929201e-05,1.993945988942869e-05
-1.4435147932090331e-05,1.9206630895496346e-05,-2.4107974240905605e-05,2.2651262042927556e-05
-9.66069728747243e-06,1.852484820119571e-05,-2.1454809029819444e-05,2.5684819775051437e-05
-7.683225703658536e-06,2.8268899768590927e-05,-2.0397668777150102e-05,2.7067477276432328e-05
-1.039787366607925e-05,4.980075391358696e-05,-2.243224298581481e-05,2.5054421712411568e-05
-2.0340898117865436e-05,6.562030466739088e-05,-2.0658049834310077e-05,2.3449028958566487e-05
-2.90239040623419e-05,6.76192794344388e-05,-1.6994539691950195e-05,1.8124525013263337e-05
-2.8885062420158647e-05,5.682199480361305e-05,-1.7124797523138113e-05,1.3987728380016051e-05
-3.199587081326172e-05,3.858443960780278e-05,-2.1845973606104963e-05,1.114075075747678e-05
-3.83989026886411e-05,1.9433495253906585e-05,-2.2527774490299635e-05,1.1166883268742822e-05
-4.2380201193736866e-05,4.818992238142528e-06,-2.1122781618032604e-05,1.3982577911519911e-05
-4.495077155297622e-05,-4.824330517294584e-06,-2.3611173673998564e-05,1.6335225154762156e-05
-4.7732908569741994e-05,-8.462289770250209e-06,-2.7921594664803706e-05,1.6856483853189275e-05
-4.934088428854011e-05,-6.576889063580893e-06,-2.7689953640219755e-05,1.6031488485168666e-05
-5.011496978113428e-05,-4.1430712371948175e-06,-2.212919389421586e-05,1.5286159396055155e-05
-5.195016638026573e-05,-9.789494015421951e-07,-1.802106635295786e-05,1.40575712066493e-05
-5.300467455526814e-05,5.2956820582039654e-06,-1.690804674581159e-05,1.4261063370213378e-05
-5.1675782742677256e-05,1.1471441212052014e-05,-1.8045730030280538e-05,1.5215860003081616e-05
-5.0530659791547805e-05,1.4158359590510372e-05,-2.238145680166781e-05,1.7266807844862342e-05
-5.089966725790873e-05,1.4115711564954836e-05,-2.8363849196466617e-05,1.833092210290488e-05
-5.119835623190738e-05,1.1623469617916271e-05,-2.962665712402668e-05,1.7842050510807894e-05
-4.8616257117828354e-05,1.2099542800569907e-05,-2.697180570976343e-05,1.756530036800541e-05
-4.479987910599448e-05,2.035783472820185e-05,-2.312927426828537e-05,1.948120552697219e-05
-4.5516710088122636e-05,3.3563766919542104e-05,-2.1536683561862446e-05,1.820988836698234e-05
-4.9229285650653765e-05,5.038552262703888e-05,-2.066199158434756e-05,1.5846488167881034e-05
-5.347125988919288e-05,6.192559521878138e-05,-2.0707742805825546e-05,1.579584932187572e-05
-5.917780799791217e-05,5.683862036676146e-05,-2.425267666694708e-05,1.980296838155482e-05
-6.460909935412928e-05,4.447904211701825e-05,-2.597328602860216e-05,2.6358085960964672e-05
-6.380205741152167e-05,3.60357116733212e-05,-2.4018549083848484e-05,2.9576403903774917e-05
-5.6504009990021586e-05,3.492207179078832e-05,-2.4785376808722503e-05,3.145057416986674e-05
-4.677081233239733e-05,3.713108162628487e-05,-2.7585103453020565e-05,3.270567685831338e-05
-4.150116728851572e-05,3.289084997959435e-05,-2.790534563246183e-05,2.857200161088258e-05
-4.415807779878378e-05,1.955392690433655e-05,-2.7579346351558343e-05,2.425221464363858e-05
-4.7995719796745107e-05,9.28104327613255e-06,-2.9640556022059172e-05,2.2757025362807326e-05
-4.5742799557046965e-05,1.1218571671633981e-05,-3.2323816412827e-05,2.155092624889221e-05
-4.0437491406919435e-05,1.6362295355065726e-05,-3.180864223395474e-05,1.9197741494281217e-05
-3.650526923593134e-05,1.3588407455245033e-05,-2.8320173441898078e-05,1.8798114979290403e-05
-3.688518700073473e-05,6.544729330926202e-06,-2.5421930331503972e-05,2.2522648578160442e-05
-4.3149142584297806e-05,5.7628258218755946e-06,-2.6164976588916034e-05,2.5240753529942594e-05
-4.977224671165459e-05,1.466931735194521e-05,-2.703283098526299e-05,2.6047049686894752e-05
-5.160751607036218e-05,3.0225000955397263e-05,-2.556218532845378e-05,2.5840885427896865e-05
-4.975728006684221e-05,4.217549576424062e-05,-2.462443444528617e-05,2.4643313736305572e-05
-5.010621316614561e-05,4.860145054408349e-05,-2.599020990601275e-05,2.3209493519971147e-05
-5.4744796216255054e-05,5.094777588965371e-05,-2.730538290052209e-05,2.1193829525145702e-05
-6.200218194862828e-05,5.575017348746769e-05,-2.7761521778302267e-05,1.7147673133877106e-05
-6.621109059778973e-05,7.243142317747697e-05,-2.870883145078551e-05,1.4612132872571237e-05
-6.419456622097641e-05,0.00010053115693153813,-3.0390830943360925e-05,1.545759914733935e-05
-6.28153866273351e-05,0.00012010497448500246,-3.2514060876565054e-05,1.8312395695829764e-05
-6.708575529046357e-05,0.0001167146474472247,-3.4299944672966376e-05,2.171820233343169e-05
-7.111309241736308e-05,9.383411816088483e-05,-3.291850953246467e-05,2.5041925255209208e-05
-7.016563904471695e-05,6.21614744886756e-05,-2.7815091016236693e-05,2.7663283617584966e-05
-6.613485311390832e-05,3.577640018193051e-05,-2.5154000468319282e-05,2.769307502603624e-05
-6.0876835050294176e-05,1.9194985725334845e-05,-2.5276543965446763e-05,2.480556031514425e-05
-5.920273542869836e-05,1.318680097028846e-05,-2.305894849996548e-05,2.021846921707038e-05
-6.14632954238914e-05,1.2070608136127703e-05,-2.1693662347388454e-05,1.821133992052637e-05
-6.055767153156921e-05,4.922774223814486e-06,-2.3075859644450247e-05,1.8096458006766625e-05
-5.283614882500842e-05,-7.858122444304172e-06,-2.213270818174351e-05,1.6713340301066637e-05
-4.540655936580151e-05,-1.5474386600544676e-05,-2.293384932272602e-05,1.8466374967829324e-05
-4.6348621253855526e-05,-1.3665988262800965e-05,-2.5639035811764188e-05,2.226318792963866e-05
-4.798708323505707e-05,-5.669360234605847e-07,-2.40607259911485e-05,2.7347346986061893e-05
-5.001109457225539e-05,1.6440530089312233e-05,-2.1491012375918217e-05,2.993442103615962e-05
-5.375793989514932e-05,2.44828133872943e-05,-1.961954876605887e-05,2.7673400836647488e-05
-5.85762390983291e-05,2.3831600628909655e-05,-1.908913691295311e-05,2.487851816113107e-05
-6.0833081079181284e-05,2.868108822440263e-05,-1.9177348804078065e-05,2.3959833924891427e-05
-5.675851571140811e-05,3.6566703784046695e-05,-1.9478380636428483e-05,2.4221553758252412e-05
-5.000641249353066e-05,3.691435631480999e-05,-2.239568675577175e-05,2.4875096642063e-05
-4.5504988520406187e-05,2.9189686756581068e-05,-2.6947534934151918e-05,2.4177406885428354e-05
-4.506489494815469e-05,1.979511398531031e-05,-2.9224311219877563e-05,2.0555091396090575e-05
-4.5526994654210284e-05,1.3060204764769878e-05,-2.650858550623525e-05,1.4849917533865664e-05
-4.551822712528519e-05,9.830509952735156e-06,-1.948349927261006e-05,1.0801569260365795e-05
-4.382922634249553e-05,8.865568815963343e-06,-1.3046503227087669e-05,1.0806124009832274e-05
-4.1565013816580176e-05,6.708055479975883e-06,-1.1541981621121522e-05,1.2303634321142454e-05
-3.888214268954471e-05,8.648815708056645e-08,-1.1949603504035622e-05,1.4792074580327608e-05
-3.883121826220304e-05,-1.1297795026621316e-05,-1.1562829968170263e-05,1.5807881936780177e-05
-4.1521685488987714e-05,-1.8183127394877374e-05,-1.3619361197925173e-05,1.5118761439225636e-05
-4.3873817048734054e-05,-1.1463372175057884e-05,-1.8174598153564148e-05,1.7655305782682262e-05
-4.3883912439923733e-05,4.848242497246247e-06,-2.1606289010378532e-05,2.3919974410091527e-05
-4.5685232180403545e-05,1.819293356675189e-05,-2.692581620067358e-05,2.8621196179301478e-05
-5.229624730418436e-05,2.9477174393832684e-05,-3.2489981094840914e-05,3.021411794179585e-05
-5.847463762620464e-05,3.891070082318038e-05,-3.4972705179825425e-05,2.795070940919686e-05
-5.778440026915632e-05,4.0084560168907046e-05,-3.457572893239558e-05,2.5968958652811125e-05
-5.0210030167363584e-05,2.922011844930239e-05,-3.0840805266052485e-05,2.7618036256171763e-05
-3.7422771129058674e-05,3.0160499591147527e-05,-2.857169420167338e-05,3.266415296820924e-05
-3.083234332734719e-05,7.233110954985023e-05,-2.9059707230771892e-05,3.786682282225229e-05
-3.8304453482851386e-05,0.00012588709068950266,-3.036409725609701e-05,4.16183247580193e-05
-5.088454781798646e-05,0.0001576965005369857,-3.035590452782344e-05,4.921360232401639e-05
-6.037313869455829e-05,0.00016165964188985527,-3.134772487101145e-05,5.6494231102988124e-05
-6.322524131974205e-05,0.00014182129234541208,-3.725511851371266e-05,5.219836748437956e-05
-6.361414125422016e-05,0.0001193775751744397,-4.2758802010212094e-05,3.808789188042283e-05
-6.852796650491655e-05,9.767565643414855e-05,-4.2063686123583466e-05,2.5085124434554018e-05
-7.575177005492151e-05,7.235324301291257e-05,-3.816250682575628e-05,1.8897801055572927e-05
-7.55578585085459e-05,4.5364275138126686e-05,-3.884070974891074e-05,1.8030426872428507e-05
-6.93670881446451e-05,2.5608665964682586e-05,-4.277960033505224e-05,1.864327714429237e-05
-6.610120908590034e-05,1.136928221967537e-05,-4.3920736061409116e-05,2.0880974261672236e-05
-6.934963312232867e-05,2.1936475604888983e-06,-4.4945762056158856e-05,2.537384716561064e-05
-7.642254786333069e-05,6.308175670710625e-06,-4.51259475084953e-05,2.914289871114306e-05
-7.947303674882278e-05,1.5767966033308767e-05,-4.158843876211904e-05,2.9171300411690027e-05
-7.292019290616736e-05,1.034175329550635e-05,-3.815876698354259e-05,2.7085696274298243e-05
-6.15035169175826e-05,-6.251429113035556e-06,-3.6303150409366935e-05,2.5930325136869214e-05
-5.2110874094069004e-05,-9.457557098357938e-06,-3.1079965992830694e-05,2.88793962681666e-05
-4.766773054143414e-05,5.725664323108504e-06,-1.8603994249133393e-05,3.3797008654801175e-05
-4.895095116808079e-05,2.5354092940688133e-05,-3.939038833777886e-06,3.6855450161965564e-05
-5.333563240128569e-05,3.9124533941503614e-05,3.902483513229527e-06,3.6797602660954e-05
-5.7537079555913806e-05,4.590359458234161e-05,4.69110000267392e-06,3.220746657461859e-05
-5.876765862922184e-05,4.6323228161782026e-05,2.8299227778916247e-06,2.713349931582343e-05
-5.4630236263619736e-05,4.903393710264936e-05,-1.4959413192627835e-06,2.579712054284755e-05
-4.834766878047958e-05,6.0263493651291355e-05,-7.832482879166491e-06,2.546456380514428e-05
-4.163712583249435e-05,7.270925561897457e-05,-1.9230146790505387e-05,2.483309253875632e-05
-3.413158265175298e-05,6.703101098537445e-05,-3.2150033803191036e-05,2.7973790565738454e-05
-2.591396332718432e-05,4.0588136471342295e-05,-3.784499131143093e-05,3.130244294879958e-05
-2.0680003217421472e-05,1.576551585458219e-05,-3.247989297960885e-05,2.8116946850786917e-05
-1.8348131561651826e-05,9.22363415156724e-06,-2.1094758267281577e-05,2.183758988394402e-05
-2.21162881643977e-05,1.4379626009031199e-05,-1.4610360267397482e-05,1.8146703951060772e-05
-3.146533708786592e-05,1.1818693565146532e-05,-1.3677495189767797e-05,1.8060065485769883e-05
-3.54731128027197e-05,-7.263675456670171e-07,-1.6640247849863954e-05,1.908012927742675e-05
-3.568038300727494e-05,-2.9752393402304733e-06,-2.1605243091471493e-05,2.1332998585421592e-05
-3.363014184287749e-05,7.725734576524701e-06,-2.499977927072905e-05,2.5035371436388232e-05
-3.508952067932114e-05,1.907172736537177e-05,-2.426464379823301e-05,2.8467440642998554e-05
-4.04293678002432e-05,2.2928952603251673e-05,-2.4548797227907926e-05,2.7849955586134456e-05
-4.047054244438186e-05,2.421090357529465e-05,-2.859213054762222e-05,2.3131129637476988e-05
-3.5593526263255626e-05,2.7481652068672702e-05,-3.116457082796842e-05,2.0283678168198094e-05
-3.436940096435137e-05,3.158510662615299e-05,-3.435443068156019e-05,2.1585632566711865e-05
-3.886679041897878e-05,3.4854430850828066e-05,-3.703934999066405e-05,2.4663531803525984e-05
-4.4426262320484966e-05,3.861520963255316e-05,-3.4939570468850434e-05,2.5932227799785323e-05
-4.705621540779248e-05,4.259533670847304e-05,-2.9073893529130146e-05,2.3703403712715954e-05
-4.7737561544636264e-05,3.9151265809778124e-05,-2.366357875871472e-05,1.932689337991178e-05
-4.5813376345904544e-05,3.0354060072568245e-05,-2.0977990061510354e-05,1.3698169823328499e-05
-3.9699560147710145e-05,2.3615866666659713e-05,-1.9320246792631224e-05,8.723225619178265e-06
-3.6251902201911435e-05,2.0771809431607835e-05,-1.5663330486859195e-05,9.383353244629689e-06
-3.800550621235743e-05,1.8702463421504945e-05,-1.2034168321406469e-05,1.4158651538309641e-05
-4.001547858933918e-05,1.6241931007243693e-05,-9.424295058124699e-06,1.6093144949991256e-05
-4.236125460010953e-05,1.2722512110485695e-05,-3.874568847095361e-06,1.2546556718007196e-05
-4.3313026253599674e-05,1.608889397175517e-05,3.984407612733776e-06,7.591214853164274e-06
-4.1213927033822984e-05,2.325080640730448e-05,1.4476289834419731e-05,5.022904133511474e-06
-4.062147854710929e-05,2.36536161537515e-05,2.828751166816801e-05,6.886863502586493e-06
-3.937268411391415e-05,2.2426755094784312e-05,2.9052240279270336e-05,9.992720151785761e-06
-3.8617828977294266e-05,2.5708739485708065e-05,6.471710094047012e-06,1.0428267160023097e-05
-3.472668686299585e-05,2.852015859389212e-05,-1.989577867789194e-05,6.790813131374307e-06
-2.9657501727342606e-05,3.325225043226965e-05,-3.5157125239493325e-05,5.572173904511146e-06
-2.94216770271305e-05,2.5038116291398183e-05,-4.324071414885111e-05,1.715277903713286e-05
-3.400936839170754e-05,-6.087362180551281e-06,-5.085990414954722e-05,3.4094460716005415e-05
-4.164504571235739e-05,-3.622716758400202e-05,-5.963822331978008e-05,4.3720006942749023e-05
-5.212002361076884e-05,-5.1677587180165574e-05,-6.559451867360622e-05,4.4433243601815775e-05
-6.070261952118017e-05,-4.6635217586299405e-05,-6.552144623128697e-05,4.2177467548754066e-05
-6.0262129409238696e-05,-3.0430675906245597e-05,-5.862277248525061e-05,3.820456549874507e-05
-5.676345608662814e-05,-1.7388956621289253e-05,-4.786522549693473e-05,2.8803937311749905e-05
-5.5851029173936695e-05,-8.706297194294166e-06,-3.687836942845024e-05,1.888593214971479e-05
-5.889421299798414e-05,1.8295153495273553e-05,-2.9494836780941114e-05,1.6154137483681552e-05
-6.439735443564132e-05,6.65773477521725e-05,-3.162982829962857e-05,1.8378445020061918e-05
-7.19529198249802e-05,0.00010761657176772133,-4.179374809609726e-05,2.015030986513011e-05
-8.028060256037861e-05,0.00012305993004702032,-5.266894368105568e-05,1.958942084456794e-05
-8.845865522744134e-05,0.00011306000669719651,-5.739582411479205e-05,1.7536749510327354e-05
-9.145423246081918e-05,9.216342004947364e-05,-5.855478593730368e-05,1.505576801719144e-05
-8.816224726615474e-05,7.969593571033329e-05,-6.0116424720035866e-05,1.5665878891013563e-05
-8.182212332030758e-05,8.045844151638448e-05,-6.312634650385007e-05,2.1423198631964624e-05
-7.315959373954684e-05,7.310727232834324e-05,-6.660077633569017e-05,2.941566526715178e-05
-6.221174407983199e-05,5.8876281400443986e-05,-6.525606295326725e-05,3.5489127185428515e-05
-5.263021739665419e-05,5.7168890634784475e-05,-5.7940156693803146e-05,3.6198201996739954e-05
-5.012328256270848e-05,6.54965260764584e-05,-4.936234836350195e-05,3.101900074398145e-05
-5.6568882428109646e-05,7.436933083226904e-05,-3.849938002531417e-05,2.49953936872771e-05
-6.761159602319822e-05,7.665939483558759e-05,-1.963743125088513e-05,2.207957732025534e-05
-7.303267921088263e-05,6.990050314925611e-05,3.337843281769892e-06,1.9823186448775232e-05
-7.550159352831542e-05,6.039322761353105e-05,2.1468533304869197e-05,1.792054536053911e-05
-7.53107451600954e-05,5.228391819400713e-05,2.9100923711666837e-05,1.6534111637156457e-05
-6.591676356038079e-05,4.8486635932931677e-05,2.2113739760243334e-05,1.748257636791095e-05
-5.53445061086677e-05,3.925175769836642e-05,8.24013022793224e-06,1.6941368812695146e-05
-4.8610414523864165e-05,2.8948184990440495e-05,-8.716538104636129e-06,1.5112337678147014e-05
-4.4051292206859216e-05,2.764825512713287e-05,-2.727808168856427e-05,1.6711537682567723e-05
-4.5604923798236996e-05,3.687594653456472e-05,-4.111809903406538e-05,1.8581311451271176e-05
-4.8726145905675367e-05,4.5031385525362566e-05,-4.856202576775104e-05,1.6548459825571626e-05
-4.8010795580921695e-05,4.306868868297897e-05,-4.290384458727203e-05,1.3503660738933831e-05
-4.727379200630821e-05,3.801625643973239e-05,-3.081935938098468e-05,1.931199039972853e-05
-4.853466816712171e-05,2.51174842560431e-05,-1.9626113498816267e-05,2.7497311748447828e-05
-5.063477510702796e-05,5.925356617808575e-06,-1.571145730849821e-05,2.8551521609188057e-05
-5.1226099458290264e-05,-1.1468457159935497e-05,-1.959701876330655e-05,2.460397081449628e-05
-4.6496279537677765e-05,-7.716581421846058e-06,-2.5254661522922106e-05,2.01945749722654e-05
-3.750123505597003e-05,2.4587998268543743e-05,-2.85940695903264e-05,1.949738543771673e-05
-3.0838764359941706e-05,5.755547317676246e-05,-3.0928091291571036e-05,2.496946217434015e-05
-2.9455823096213862e-05,6.0505619330797344e-05,-3.105532596237026e-05,3.146946619381197e-05
-3.0450193662545644e-05,4.078568599652499e-05,-2.579345709818881e-05,3.1375977414427325e-05
-3.10791983793024e-05,2.4087510610115714e-05,-1.955454354174435e-05,2.7622243578662165e-05
-2.888394010369666e-05,1.7780201233108528e-05,-1.6630834579700604e-05,2.7950562071055174e-05
-2.4088536520139314e-05,1.2842659089074004e-05,-1.5594994692946784e-05,3.2702420867281035e-05
-2.0610539650078863e-05,6.619960913667455e-06,-1.2470458386815153e-05,3.553575515979901e-05
-2.2128971977508627e-05,4.373614046926377e-06,-1.0831450708792545e-05,3.424371243454516e-05
-2.6368674298282713e-05,6.281217338255374e-06,-1.1176968655490782e-05,3.207447298336774e-05
-2.8215974452905357e-05,1.0788617146317847e-05,-1.162471016868949e-05,3.281637327745557e-05
-2.6403353331261314e-05,1.5145116776693612e-05,-8.496524060319643e-06,3.521644612192176e-05
-2.2707856260240078e-05,1.1673956578306388e-05,-2.73049772658851e-06,3.389316771063022e-05
-2.1994963390170597e-05,-7.5274119808455e-06,-1.3940762073616497e-06,2.8304537408985198e-05
-2.573811070760712e-05,-4.491706204134971e-05,-3.073077778026345e-06,2.518753353797365e-05
-3.292328983661719e-05,-6.846184987807646e-05,-7.123127033992205e-06,2.4616581868031062e-05
-3.8709822547389194e-05,-5.670268365065567e-05,-9.460178262088448e-06,2.5233626729459502e-05
-3.8855578168295324e-05,-3.576010567485355e-05,-7.895935596025083e-06,2.9504544727387838e-05
-3.846523759420961e-05,-2.0455139747355133e-05,-6.8240951804909855e-06,3.3569558581802994e-05
-4.012824865640141e-05,-1.0280813512508757e-05,-1.7145785022876225e-06,3.497268698993139e-05
-4.490965875447728e-05,5.058781198385986e-07,3.3770922982512275e-06,3.484797343844548e-05
-5.225259155849926e-05,1.2698385944531765e-05,-9.292970162277925e-07,3.194613600498997e-05
-5.7050903706112877e-05,2.499814218026586e-05,-2.092648355755955e-05,2.8376001864671707e-05
-5.866856736247428e-05,4.140776945860125e-05,-4.5491855416912585e-05,2.6410129066789523e-05
-5.85262241656892e-05,6.953815318411216e-05,-6.003278758726083e-05,2.6899353542830795e-05
-5.860347664565779e-05,9.466752089792863e-05,-5.946432429482229e-05,3.10036375594791e-05
-6.001396104693413e-05,9.549473179504275e-05,-5.2171664719935507e-05,3.711270619533025e-05
-6.055314588593319e-05,7.80485788709484e-05,-4.522068047663197e-05,4.048495611641556e-05
-5.6522538216086105e-05,6.63089012959972e-05,-4.0633243770571426e-05,3.764826396945864e-05
-5.042660632170737e-05,6.851743819424883e-05,-3.93578338844236e-05,3.1589068385073915e-05
-4.6705066779395565e-05,7.422915223287418e-05,-3.883502722601406e-05,2.6312194677302614e-05
-4.554520273813978e-05,7.52585256122984e-05,-3.712678517331369e-05,2.2521227947436273e-05
-4.4732008973369375e-05,6.914728146512061e-05,-3.247498534619808e-05,1.855870505096391e-05
-4.4315533159533516e-05,5.442953261081129e-05,-2.640187449287623e-05,1.526564847154077e-05
-4.333035758463666e-05,3.0751001759199426e-05,-2.075928023259621e-05,1.3808980838803109e-05
-4.223311771056615e-05,5.979110937914811e-06,-2.0132085410295986e-05,1.4725078472110908e-05
-4.5109580241842195e-05,-1.2228110790601932e-05,-2.168561150028836e-05,1.5107319086382631e-05
-4.947838169755414e-05,-2.534707891754806e-05,-2.1520267182495445e-05,1.3191340258345008e-05
-5.228433292359114e-05,-5.512786083272658e-05,-1.8254655515193008e-05,1.4819892385276034e-05
-5.5617561883991584e-05,-9.392660285811871e-05,-1.4193830793374218e-05,1.9240840629208833e-05
-5.925070945522748e-05,-0.00010185241262661293,-1.4638873835792765e-05,2.3413338567479514e-05
-6.41552105662413e-05,-5.00182322866749e-05,-1.8664379240362905e-05,2.5338425984955393e-05
-7.555851334473118e-05,4.0703496779315174e-05,-2.250914985779673e-05,2.559919812483713e-05
-9.091948595596477e-05,0.00011599479330470785,-2.9138625905034132e-05,2.9219252610346302e-05
-9.979726019082591e-05,0.00014922043192200363,-4.005458686151542e-05,2.861526263586711e-05
-0.00010189697059104219,0.00014154026575852185,-5.127368785906583e-05,2.2551130314241163e-05
-0.00010208439198322594,0.00012145520304329693,-5.639956361846998e-05,1.6034888176363893e-05
-9.349591709906235e-05,0.00010783944890135899,-5.683593553840183e-05,9.061428499990143e-06
-7.731481309747323e-05,9.743146802065894e-05,-5.817473720526323e-05,5.195820449444e-06
-6.363628199324012e-05,9.501601743977517e-05,-6.655033212155104e-05,9.601996680430602e-06
-6.273374310694635e-05,0.0001099988367059268,-7.418691529892385e-05,1.9417751900618896e-05
-7.409402314806357e-05,0.0001266387989744544,-7.250914495671168e-05,2.496953311492689e-05
-8.236191933974624e-05,0.0001164653294836171,-6.226493132999167e-05,2.4693143132026307e-05
-7.95626692706719e-05,8.463286212645471e-05,-4.695148527389392e-05,2.101893551298417e-05
-7.057587936287746e-05,5.318436888046563e-05,-3.055377601413056e-05,1.8090866433340125e-05
-6.071118696127087e-05,3.702830144902691e-05,-1.5373099813587032e-05,1.5860756320762448e-05
-5.251796028460376e-05,3.43944484484382e-05,-1.7690352933641407e-06,1.3772160855296534e-05
-4.828388773603365e-05,4.350431845523417e-05,1.0359427506045904e-05,1.4011357052368112e-05
-4.773872933583334e-05,6.334060162771493e-05,1.616958797967527e-05,1.611586230865214e-05
-4.825182259082794e-05,8.341790089616552e-05,1.5998968592612073e-05,1.77141137100989e-05
-4.7441648348467425e-05,9.133941057370976e-05,1.636901288293302e-05,1.9511870050337166e-05
-4.873222496826202e-05,8.914086356526241e-05,2.24486029765103e-05,2.113554182869848e-05
-5.489134491654113e-05,8.535941014997661e-05,3.243309765821323e-05,2.1284589820425026e-05
-6.066593778086826e-05,7.704010204179212e-05,4.4117667130194604e-05,2.2025613361620344e-05
-6.217879126779735e-05,5.9232563216937706e-05,5.199203951633535e-05,2.3429929569829255e-05
-6.591252167709172e-05,3.910645318683237e-05,5.1209171942900866e-05,2.3769840481691062e-05
-6.701173697365448e-05,1.9451461412245408e-05,3.9869268221082166e-05,2.2420354071073234e-05
-5.8836390962824225e-05,-2.232487349829171e-05,2.2552849259227514e-05,2.005952956096735e-05
-4.650981645681895e-05,-9.649373532738537e-05,4.446466846275143e-06,1.7579437553649768e-05
-3.519127130857669e-05,-0.00014715606812387705,-1.5608640751452185e-05,1.7628573914407752e-05
-3.063880285480991e-05,-0.00013737889821641147,-3.5177879908587784e-05,1.8448861737851985e-05
-3.1433668482350186e-05,-9.488631621934474e-05,-4.97953878948465e-05,1.7152357031591237e-05
-3.550802284735255e-05,-5.0105565605917946e-05,-6.298960215644911e-05,1.9102635633316822e-05
-3.636212204582989e-05,-1.7268441297346726e-05,-7.917764014564455e-05,3.1057308660820127e-05
-3.253365866839886e-05,1.9191618775948882e-05,-9.361406409880146e-05,4.228082616464235e-05
-3.0510056603816338e-05,4.982917744200677e-05,-9.203877561958507e-05,4.3312975321896374e-05
-3.506253779050894e-05,5.911802509217523e-05,-7.746744813630357e-05,3.610517887864262e-05
-3.919854134437628e-05,5.119260822539218e-05,-6.387213943526149e-05,2.1528885554289445e-05
-3.575781738618389e-05,3.582232602639124e-05,-5.200152372708544e-05,8.038096893869806e-06
-2.9738317607552744e-05,1.8632856153999455e-05,-4.2148985812673345e-05,7.730021934548859e-06
-2.5387273126398213e-05,1.5422014257637784e-05,-4.0759736293694004e-05,2.6944813726004213e-05
-2.883356501115486e-05,3.9753736928105354e-05,-4.8500409320695326e-05,5.140425491845235e-05
-3.715600541909225e-05,7.122790702851489e-05,-5.532759678317234e-05,6.0813941672677174e-05
-4.528727731667459e-05,7.408455712720752e-05,-5.7180135627277195e-05,5.277791933622211e-05
-5.398012581281364e-05,4.412692578625865e-05,-5.614403562503867e-05,3.6125773476669565e-05
-6.3695726566948e-05,1.2503141988418065e-05,-5.5113072448875755e-05,1.9583410903578624e-05
-6.534684507641941e-05,-5.836407126480481e-06,-5.232909461483359e-05,9.823490472626872e-06
-5.832531314808875e-05,-1.8564762285677716e-05,-4.2723848309833556e-05,8.396354132855777e-06
-5.316786700859666e-05,-2.0452514945645817e-05,-2.874902384064626e-05,1.0754004506452475e-05
-5.443229019874707e-05,-8.645371963211801e-06,-1.3554788893088698e-05,1.3622772712551523e-05
-5.659860107698478e-05,-1.127645191445481e-05,7.340912588915671e-07,1.877948670880869e-05
-5.1920735131716356e-05,-2.8809774448745884e-05,6.73132853989955e-06,2.9880175134167075e-05
-4.286702460376546e-05,-2.1442809156724252e-05,4.529609668679768e-06,4.6991586714284495e-05
-3.859348362311721e-05,2.8588197892531753e-05,-3.1604452033207053e-06,6.098697485867888e-05
-4.361301762401126e-05,8.587365300627425e-05,-1.5383027857751586e-05,6.24433669145219e-05
-6.06925823376514e-05,0.0001318825816269964,-3.400525383767672e-05,5.492059426615015e-05
-8.058529056143016e-05,0.00014813577581662685,-5.192756361793727e-05,3.699715307448059e-05
-8.826403063721955e-05,0.0001268887281185016,-5.2639978093793616e-05,1.561017234052997e-05
-8.446071296930313e-05,0.00010004978685174137,-2.9837736292392947e-05,5.274442628433462e-06
-7.567632565042004e-05,8.671066461829469e-05,-1.759162955750071e-06,5.399030214903178e-06
-6.895072874613106e-05,7.258531695697457e-05,1.0603093869576696e-05,9.099985618377104e-06
-6.260351074161008e-05,3.494769771350548e-05,1.0450665286043659e-05,9.48558772506658e-06
-5.804179818369448e-05,-1.4547329556080513e-05,3.3988296763709513e-06,9.566803782945499e-06
-5.586129555013031e-05,-4.935906326863915e-05,-5.156251518201316e-06,1.4480320714937989e-05
-5.288576357997954e-05,-5.417653301265091e-05,-1.7018272046698257e-05,2.3797676476533525e-05
-4.6385048335650936e-05,-3.8329937524395064e-05,-3.684636249090545e-05,3.275115886935964e-05
-4.0993392758537084e-05,-1.0822934200405143e-05,-5.720249828300439e-05,3.794009899138473e-05
-4.2224190110573545e-05,1.699092536000535e-05,-6.460340955527499e-05,4.001759589300491e-05
-4.7474772145505995e-05,3.788962203543633e-05,-6.249638681765646e-05,3.870504588121548e-05
-5.001037789043039e-05,5.442508700070903e-05,-5.989875353407115e-05,3.6348021239973605e-05
-4.81281203974504e-05,7.048577390378341e-05,-5.268293898552656e-05,3.32521231030114e-05
-4.7423560317838565e-05,8.406864071730524e-05,-3.6215886211721227e-05,3.0070601496845484e-05
-4.982212703907862e-05,8.268332749139518e-05,-2.247406700917054e-05,2.724937985476572e-05
-5.101137503515929e-05,5.820320438942872e-05,-2.060128463199362e-05,2.092142131004948e-05
-4.3283227569190785e-05,2.0368126570247114e-05,-2.3190599677036516e-05,1.2148399946454447e-05
-2.9024193281657062e-05,-9.334231435786933e-06,-2.2644868295174092e-05,9.59964563662652e-06
-1.8868369807023555e-05,-2.2186066416907124e-05,-1.883468394225929e-05,1.3487927390087862e-05
-1.72162563103484e-05,-2.0641111404984258e-05,-1.4487528460449539e-05,1.657807115407195e-05
-2.1232863218756393e-05,-1.1629073924268596e-05,-1.1812391676357947e-05,1.833620081015397e-05
-2.5741730496520177e-05,4.763263405038742e-06,-1.2012698789476417e-05,2.216489883721806e-05
-2.84303241642192e-05,2.701299854379613e-05,-1.76491685124347e-05,2.3835957108531147e-05
-3.142662171740085e-05,4.5744061935693026e-05,-2.2582131350645795e-05,2.0403471353347413e-05
-3.052136889891699e-05,5.5487278586952016e-05,-1.7211941667483188e-05,1.963107024494093e-05
-2.7459140255814418e-05,6.40122962067835e-05,-1.419652471668087e-05,1.967811112990603e-05
-2.6014102331828326e-05,8.196003909688443e-05,-1.2797880117432214e-05,1.744724067975767e-05
-3.0398541639442556e-05,0.00012878542474936694,-9.660706382419448e-06,1.701402652543038e-05
-3.8606947782682255e-05,0.0001785688946256414,-7.959947652125265e-06,1.6967247574939393e-05
-4.2815190681722015e-05,0.00017625883629079908,-1.1213300240342505e-05,1.7148056940641254e-05
-3.99262280552648e-05,0.00012270608567632735,-1.5607030945830047e-05,1.8262318917550147e-05
-3.0062661608099006e-05,6.073225085856393e-05,-1.4640821063949261e-05,1.969154254766181e-05
-2.1062813175376505e-05,2.3758195311529562e-05,-1.4526180166285485e-05,2.2642057956545614e-05
-1.7053276678780094e-05,3.816532625933178e-06,-1.6726291505619884e-05,2.5395986085641198e-05
-1.5582625565002672e-05,-9.426765245734714e-06,-1.3116127774992492e-05,2.5495002773823217e-05
-1.640655864321161e-05,-8.694699317857157e-06,-5.08636912854854e-06,2.3053877157508396e-05
-1.9817351130768657e-05,2.903744871218805e-06,-4.488415470405016e-06,2.264928843942471e-05
-2.5298235414084047e-05,8.6765612650197e-06,-1.3721766663365997e-05,2.363526618864853e-05
-3.5867888072971255e-05,8.46037164592417e-06,-2.4835344447637908e-05,2.3836426407797262e-05
-4.786459976457991e-05,5.411541224020766e-06,-2.8858117730123922e-05,2.4095179469441064e-05
-5.530235648620874e-05,-1.2086359674867708e-05,-3.1204643164528534e-05,2.5413133698748425e-05
-5.432785110315308e-05,-5.500842598848976e-05,-3.897594069712795e-05,2.606300768093206e-05
-4.683182851294987e-05,-0.00010993621981469914,-4.723314486909658e-05,2.2793994503444992e-05
-3.8387228414649144e-05,-0.0001466805988457054,-4.800719034392387e-05,1.911928666231688e-05
-3.1192132155410945e-05,-0.00015506126510445029,-4.326600537751801e-05,1.7980864868150093e-05
-2.7261970899417065e-05,-0.00015359630924649537,-3.9414841012330726e-05,1.9341763618285768e-05
-2.7653250072035007e-05,-0.00014042816474102437,-3.978140011895448e-05,2.403444523224607e-05
-3.123352144029923e-05,-7.77498134993948e-05,-4.092022936674766e-05,2.9406997782643884e-05
-3.806457971222699e-05,1.8977219951921143e-05,-3.8926929846638814e-05,3.182308137184009e-05
-4.49216240667738e-05,8.668585360283032e-05,-3.590740016079508e-05,2.672147093107924e-05
-4.502838783082552e-05,0.000107117673906032,-3.8109112210804597e-05,1.6992878954624757e-05
-3.9738286432111636e-05,0.00011339350749040022,-4.707148764282465e-05,1.2825341400457546e-05
-4.606581205734983e-05,0.00015353098569903523,-5.681147740688175e-05,1.5187480130407494e-05
-7.113134779501706e-05,0.00021206536621320993,-6.3762316131033e-05,1.5633193470421247e-05
-0.00010455637675477192,0.00022218981757760048,-6.309484160738066e-05,1.701334440440405e-05
-0.00013193237828090787,0.00018540056771598756,-5.3499508794629946e-05,2.459760071360506e-05
-0.00014334403385873884,0.00015093685942701995,-4.0483097109245136e-05,2.6596631869324483e-05
-0.00014908923185430467,0.00012846577737946063,-2.8137927074567415e-05,2.146619044651743e-05
-0.00014945401926524937,0.00011312401329632849,-2.1004811060265638e-05,1.2207735380798113e-05
-0.00013412446423899382,0.00010343451867811382,-1.4989470400905702e-05,5.811075880046701e-06
-0.00011050493776565418,8.415030606556684e-05,-1.048020385496784e-05,6.729816504957853e-06
-9.217762271873653e-05,6.056489291950129e-05,-9.673385648056865e-06,1.2433310075721238e-05
-7.87969256634824e-05,4.9535468860995024e-05,-6.591783403564477e-06,1.812521441024728e-05
-6.722560647176579e-05,5.228579175309278e-05,-3.687527623696951e-06,2.0236713680787943e-05
-5.439380038296804e-05,5.5845062888693064e-05,-5.173640602151863e-06,2.128936284861993e-05
-4.13699854107108e-05,5.2202089136699215e-05,-9.397660505783278e-06,2.3876047634985298e-05
-3.278432268416509e-05,3.354312866576947e-05,-1.62312644533813e-05,2.7291194783174433e-05
-3.0374631023732945e-05,-2.465369561832631e-06,-2.5048861061804928e-05,2.8003652914776467e-05
-3.3080268622143194e-05,-3.330368781462312e-05,-3.2819392799865454e-05,2.8575655960594304e-05
-3.6854562495136634e-05,-3.637728877947666e-05,-3.736796134035103e-05,3.2182408176595345e-05
-4.070790237165056e-05,-2.1008689145673998e-05,-3.645462493295781e-05,3.4480352042010054e-05
-4.4599437387660146e-05,-6.422396381822182e-06,-3.3038635592674837e-05,3.031124833796639e-05
-4.650041228160262e-05,4.881210315943463e-06,-3.0077595511102118e-05,2.5503830329398625e-05
-4.703944796347059e-05,1.7324859072687104e-05,-2.6585143132251687e-05,2.292984390805941e-05
-5.4142361477715895e-05,3.720993117894977e-05,-1.988955591514241e-05,2.194944318034686e-05
-6.155705341370776e-05,6.0947848396608606e-05,-1.1847141649923287e-05,2.681009027583059e-05
-6.315605423878878e-05,7.252070645336062e-05,-8.323120709974319e-06,3.633895903476514e-05
-6.181257049320266e-05,6.376737292157486e-05,-1.5319836165872402e-05,4.1800034523475915e-05
-5.710231198463589e-05,4.322304448578507e-05,-2.7166457584826276e-05,4.008819450973533e-05
-5.19828281539958e-05,2.4716959160286933e-05,-3.0122357202344574e-05,3.617156107793562e-05
-4.253538645571098e-05,1.559071461088024e-05,-2.7996520657325163e-05,3.184620072715916e-05
-3.773207572521642e-05,6.698509423586074e-06,-2.713270987442229e-05,2.2024172722012736e-05
-4.133745824219659e-05,-1.1092522072431166e-05,-2.9178507247706875e-05,1.2287702702451497e-05
-4.471062493394129e-05,-2.9707600333495066e-05,-3.410285717109218e-05,1.1836034900625236e-05
-4.990437810192816e-05,-2.8627375286305323e-05,-3.4407574275974184e-05,1.8679425920709036e-05
-5.354843597160652e-05,-6.424618277378613e-06,-3.121852205367759e-05,2.310487616341561e-05
-5.180900188861415e-05,1.8566050130175427e-05,-2.513345498300623e-05,2.5573908715159632e-05
-4.477888796827756e-05,3.3063442970160395e-05,-2.1322441170923412e-05,3.0314899049699306e-05
-4.124249971937388e-05,3.64334846381098e-05,-2.5674426069599576e-05,3.5107776056975126e-05
-4.386313594295643e-05,3.280217060819268e-05,-3.162023494951427e-05,3.702708272612654e-05
-4.767150312545709e-05,3.0467872420558706e-05,-3.2829862902872264e-05,3.234344330849126e-05
-4.404074570629746e-05,5.509419133886695e-05,-2.689574466785416e-05,2.3449285436072387e-05
-3.4049502573907375e-05,0.00011745380470529199,-1.5443309166585095e-05,1.72506279341178e-05
-2.6706917196861468e-05,0.0001674819504842162,-4.249935500411084e-06,1.7990585547522642e-05
-2.599680556159001e-05,0.00014740065671503544,-4.631286003586865e-07,2.0599582057911903e-05
-2.8219272280693986e-05,6.61237645545043e-05,-4.085027285327669e-06,2.0369972844491713e-05
-2.54457463597646e-05,-1.902634721773211e-05,-1.028014321491355e-05,1.8717526472755708e-05
-2.097286778734997e-05,-6.513972039101645e-05,-1.787799919839017e-05,1.955218795046676e-05
-2.336138641112484e-05,-7.493245357181877e-05,-2.847966788976919e-05,2.080058584397193e-05
-3.245814878027886e-05,-7.45639918022789e-05,-4.029520641779527e-05,2.0140701963100582e-05
-3.986314914072864e-05,-7.714136881986633e-05,-5.093267100164667e-05,2.108611079165712e-05
-4.106772757950239e-05,-6.714292976539582e-05,-5.6555836636107415e-05,2.371871960349381e-05
-4.689960042014718e-05,-3.2101237593451515e-05,-5.1642484322655946e-05,2.3172007786342874e-05
-6.485314952442423e-05,3.7860629618080566e-06,-3.767526141018607e-05,1.627253914193716e-05
-7.814253331162035e-05,2.04508651222568e-05,-2.6305080609745346e-05,1.0372832548455335e-05
-8.091764902928844e-05,3.49555593857076e-05,-2.4310364096891135e-05,1.358354256808525e-05
-8.088896720437333e-05,6.064802437322214e-05,-2.411802051938139e-05,1.5652263755328022e-05
-7.71949635236524e-05,8.732914284337312e-05,-2.1228894183877856e-05,1.1221382919757161e-05
-6.907244824105874e-05,0.0001074099782272242,-2.0168250557617284e-05,6.771922471671132e-06
-6.267686694627628e-05,0.00012476045230869204,-1.9462606360320933e-05,5.164998583495617e-06
-6.0331127315294e-05,0.0001292432425543666,-2.134257010766305e-05,4.844400791625958e-06
-5.6555672927061096e-05,0.00011282186460448429,-2.5082223146455362e-05,8.431350579485297e-06
-4.563051334116608e-05,9.116151341004297e-05,-2.1508576537598856e-05,1.7631100490689278e-05
-3.2644427847117186e-05,7.867634121794254e-05,-1.3391246284299996e-05,2.6421133952680975e-05
-2.80434778687777e-05,7.868623652029783e-05,-6.092035619076341e-06,3.354968794155866e-05
-3.6674380680778995e-05,9.109282109420747e-05,-1.6289933455482242e-06,3.7415025872178376e-05
-5.541732025449164e-05,9.412381768925115e-05,-1.20028278161044e-06,3.791468043345958e-05
-7.460991764673963e-05,4.5906668674433604e-05,-2.662407041498227e-06,3.233700408600271e-05
-8.137949771480635e-05,-5.2910138037987053e-05,-2.6111422357644187e-06,1.9627488654805347e-05
-7.353334513027221e-05,-0.00014183044550009072,5.232319040260336e-07,9.543862688587978e-06
-6.115588621469215e-05,-0.00017212667444255203,4.508311576501001e-06,9.55848918238189e-06
-5.4684362112311646e-05,-0.00014284561621025205,3.3602627809159458e-06,1.5964838894433342e-05
-5.5076183343771845e-05,-8.422362589044496e-05,-4.494163476920221e-06,2.1848083633813076e-05
-5.5704822443658486e-05,-2.648958434292581e-05,-1.3591254173661582e-05,2.735959606070537e-05
-5.15044666826725e-05,2.065208536805585e-05,-2.1057227058918215e-05,3.577915413188748e-05
-4.337294012657367e-05,5.303226862451993e-05,-2.777593908831477e-05,4.6131117414915934e-05
-3.6514178646029904e-05,6.345754081849009e-05,-3.697313877637498e-05,5.285141014610417e-05
-3.69009721907787e-05,5.851841706316918e-05,-4.70007216790691e-05,5.110080383019522e-05
-4.574449121719226e-05,4.634340075426735e-05,-4.7741326852701604e-05,4.300708314985968e-05
-5.190816955291666e-05,3.514887430355884e-05,-3.8288144423859194e-05,3.290624954388477e-05
-5.1008428272325546e-05,2.854931153706275e-05,-2.7532269086805172e-05,2.781884904834442e-05
-4.4484168029157445e-05,1.9790486476267688e-05,-2.2221131075639278e-05,2.9140564947738312e-05
-3.546510197338648e-05,9.673308341007214e-06,-2.238705928903073e-05,2.9843207812518813e-05
-3.083972114836797e-05,8.204654477594886e-06,-2.3134056391427293e-05,2.9898716093157418e-05
-2.8606642445083708e-05,1.9341136066941544e-05,-2.635394048411399e-05,3.0397941372939385e-05
-2.801978735078592e-05,3.0741684895474464e-05,-2.888064227590803e-05,3.036426642211154e-05
-3.5447046684566885e-05,3.83134902222082e-05,-2.794767169689294e-05,2.8662003387580626e-05
-4.328689828980714e-05,3.950833706767298e-05,-2.7932288503507152e-05,2.4350170860998333e-05
-4.5471791963791475e-05,3.376891618245281e-05,-2.915162440331187e-05,2.2084808733779937e-05
-4.76136410725303e-05,2.9147404347895645e-05,-3.174136145389639e-05,2.4267099433927797e-05
-4.977738717570901e-05,3.191977157257497e-05,-3.257807111367583e-05,2.7003146897186525e-05
-5.1146715122740716e-05,4.0536724554840475e-05,-2.8521044441731647e-05,2.8886091968161054e-05
-5.0248279876541346e-05,5.17280786880292e-05,-2.1869556803721935e-05,2.771112121990882e-05
-4.914421515422873e-05,6.054690311430022e-05,-1.9317396436235867e-05,2.51232813752722e-05
-4.808689118362963e-05,6.398347613867372e-05,-2.1548732547671534e-05,2.3520302420365624e-05
-4.561537934932858e-05,6.244156247703359e-05,-2.3390475689666346e-05,2.4335435227840208e-05
-4.3345335143385455e-05,5.993086233502254e-05,-1.9664421415654942e-05,2.7933141609537415e-05
-4.2012226913357154e-05,5.5225114920176566e-05,-1.533111026219558e-05,3.0658149626106024e-05
-4.225932207191363e-05,4.414878640091047e-05,-1.898507252917625e-05,2.9715885830228217e-05
-4.383844861877151e-05,3.0168994271662086e-05,-2.6176854589721188e-05,2.7011386919184588e-05
-4.598985469783656e-05,1.9416498616919853e-05,-2.7185180442756973e-05,2.4350525563932024e-05
-4.574967533699237e-05,1.5323827028623782e-05,-2.4760302039794624e-05,2.1038729755673558e-05
-3.9409442251781e-05,1.2093613804609049e-05,-2.4455859602312557e-05,1.8629032638273202e-05
-3.121161353192292e-05,-7.3393994171055965e-06,-2.423377191007603e-05,1.93387531908229e-05
-2.433309782645665e-05,-5.524847802007571e-05,-2.448183295200579e-05,2.4353730623261072e-05
-1.791675458662212e-05,-0.00010851854312932119,-2.456537913531065e-05,2.8592323360498995e-05
-1.4886316421325319e-05,-0.00013817436411045492,-2.4635937734274194e-05,2.6222252927254885e-05
-1.1432168321334757e-05,-0.0001312009699176997,-2.343491905776318e-05,2.126816616510041e-05
-1.1080591320933308e-05,-8.702505147084594e-05,-2.355948709009681e-05,2.07320863410132e-05
-1.916795918077696e-05,-1.2707929272437468e-05,-2.578594649094157e-05,2.17468314076541e-05
-2.704537291720044e-05,7.212619675556198e-05,-2.673781091289129e-05,2.298567233083304e-05
-2.8474365535657853e-05,0.00014915755309630185,-2.398891592747532e-05,2.114113885909319e-05
-3.054237458854914e-05,0.00019547640113160014,-2.1975511117489077e-05,1.730264921206981e-05
-3.786774323089048e-05,0.00020020993542857468,-2.583384411991574e-05,1.3327949091035407e-05
-5.4692332923877984e-05,0.00021882877626921982,-3.312647095299326e-05,1.0553431820881087e-05
-8.118668483803049e-05,0.00029542401898652315,-4.096622797078453e-05,1.4605705473513808e-05
-0.0001062107621692121,0.00036648535751737654,-4.4756176066584885e-05,1.8811571862897836e-05
-0.0001205115913762711,0.00034118679468519986,-4.6117369493003935e-05,1.9784385585808195e-05
-0.00011734996951417997,0.00023356145538855344,-4.478843402466737e-05,2.0592451619450003e-05
-0.00010124704567715526,0.00012151875853305683,-4.2097384721273556e-05,1.972841528186109e-05
-8.550214261049405e-05,5.138920096214861e-05,-3.89424167224206e-05,1.6849688108777627e-05
-7.887928950367495e-05,1.322784100921126e-05,-3.3167703804792836e-05,1.4987275790190324e-05
-7.88625911809504e-05,-1.092256025003735e-05,-2.7771195163950324e-05,1.545651139167603e-05
-7.728343916824088e-05,-3.065941564273089e-05,-2.7609978133114055e-05,1.8304859622730874e-05
-7.434321742039174e-05,-5.311293716658838e-05,-3.132922211079858e-05,1.9403496480663307e-05
-7.299386925296858e-05,-6.857839616714045e-05,-3.353023930685595e-05,1.7201937225763686e-05
-6.927858339622617e-05,-6.344165740301833e-05,-3.510748138069175e-05,1.6395162674598396e-05
-6.283110997173935e-05,-3.296708382549696e-05,-3.6787401768378913e-05,1.8288123101228848e-05
-5.7811179431155324e-05,4.449015705176862e-06,-3.594289955799468e-05,2.095599120366387e-05
-5.416888961917721e-05,2.1856163584743626e-05,-3.192426447640173e-05,2.5272409402532503e-05
-5.106335083837621e-05,1.259353848581668e-05,-2.8548181944643147e-05,2.8834265322075225e-05
-4.92363833473064e-05,-5.3527737691183574e-06,-2.687955020519439e-05,2.765003955573775e-05
-4.766213533002883e-05,-1.3978256902191788e-05,-2.8171578378533013e-05,2.5424425984965637e-05
-4.5618409785674885e-05,-1.2557006812130567e-05,-2.990448774653487e-05,2.6087249352713116e-05
-4.843602073378861e-05,-1.277120736631332e-05,-2.9770330002065748e-05,2.4450457203784026e-05
-5.511356721399352e-05,-1.4933812053641304e-05,-2.8719176043523476e-05,2.143802157661412e-05
-5.1038699893979356e-05,-1.4958911378926132e-05,-2.665619285835419e-05,1.922348928928841e-05
-4.2514049710007384e-05,-1.2684577995969448e-05,-2.5849658413790166e-05,1.5955662092892453e-05
-4.41809170297347e-05,-2.170021161873592e-06,-2.4544209736632183e-05,1.121025525208097e-05
-4.748336868942715e-05,6.359444796544267e-06,-2.372147901041899e-05,8.257270565081853e-06
-4.239918416715227e-05,-2.7141304599354044e-06,-2.6411109502078034e-05,1.723842251522001e-05
-3.7100762710906565e-05,-1.556821007397957e-05,-2.6427047487231903e-05,2.9781756893498823e-05
-3.567031671991572e-05,-1.8890495994128287e-05,-2.11380156542873e-05,3.475217818049714e-05
-3.341162300785072e-05,-6.2891331253922544e-06,-1.4449812624661718e-05,3.2824056688696146e-05
-3.172417564201169e-05,2.902379674196709e-05,-1.0679642400646117e-05,3.0003635401953943e-05
-2.965655039588455e-05,7.400996400974691e-05,-8.039814019866753e-06,3.152736462652683e-05
-2.9736003853031434e-05,0.00010253806976834312,-2.7584178496908862e-06,3.6591809475794435e-05
-3.1162860977929085e-05,0.00010706284956540912,-1.1842761216129816e-09,4.1726645577000454e-05
-3.097667286056094e-05,9.23226325539872e-05,-3.350593033246696e-06,4.333625111030415e-05
-3.362970528542064e-05,7.329474465223029e-05,-1.0646996088325977e-05,4.0259761590277776e-05
-3.9189006201922894e-05,6.472022505477071e-05,-1.6978478015516885e-05,3.6032630305271596e-05
-4.287072079023346e-05,6.135974399512634e-05,-2.0548879547277465e-05,3.3647113014012575e-05
-4.5648230297956616e-05,5.4630098020425066e-05,-2.0037547074025497e-05,3.279401789768599e-05
-5.253562267171219e-05,4.118198194191791e-05,-1.6879754184628837e-05,3.321950134704821e-05
-5.9523659729165956e-05,2.1183785065659322e-05,-1.581636388436891e-05,3.247463973821141e-05
-6.155831215437502e-05,8.355131285497919e-06,-1.3630913599627092e-05,3.0017896278877743e-05
-5.8618810726329684e-05,2.180292722187005e-05,-9.195013262797147e-06,2.671448419278022e-05
-5.235015123616904e-05,4.7945584810804576e-05,-8.59200008562766e-06,2.2226224245969206e-05
-4.8991678340826184e-05,5.740892083849758e-05,-1.4596044820791576e-05,1.9313512893859297e-05
-5.151731238584034e-05,4.837962114834227e-05,-2.944341213151347e-05,2.0804160158149898e-05
-5.880435855942778e-05,4.4447355321608484e-05,-4.491524668992497e-05,2.401300662313588e-05
-6.668264541076496e-05,3.9718459447612986e-05,-4.87576617160812e-05,2.8093567379983142e-05
-7.409072713926435e-05,2.736419628490694e-05,-4.642759813577868e-05,2.7040021450375207e-05
-8.096259261947125e-05,1.775629243638832e-05,-4.594881829689257e-05,2.2920807168702595e-05
-7.540197111666203e-05,3.8647053770546336e-06,-4.5753284211969e-05,2.3021595552563667e-05
-5.97777652728837e-05,-1.2106727808713913e-05,-4.1061241063289344e-05,2.4336408387171105e-05
-4.792269101017155e-05,-1.7189173377119005e-05,-3.687493153847754e-05,2.506067176000215e-05
-4.315897967899218e-05,-5.814073119836394e-06,-3.842440855805762e-05,2.6181705834460445e-05
-4.221509880153462e-05,1.0265053788316436e-05,-4.021198765258305e-05,2.4035418391576968e-05
-4.053064185427502e-05,-1.6005617453629384e-07,-3.953258419642225e-05,1.7571162970853038e-05
-4.3726759031414986e-05,-3.055100387427956e-05,-3.945590287912637e-05,1.0368690709583461e-05
-4.958656427334063e-05,-4.423245627549477e-05,-3.8884023524587974e-05,6.6572215473570395e-06
-5.0528207793831825e-05,-3.756213482120074e-05,-3.6009812902193516e-05,9.209359632222913e-06
-4.677278411691077e-05,-2.5912591809174046e-05,-3.460630614426918e-05,1.2199670891277492e-05
-4.3151107092853636e-05,-8.068120223470032e-06,-3.5042481613345444e-05,1.1401965821278282e-05
-4.40053700003773e-05,1.8897198970080353e-05,-3.485422712401487e-05,7.771694072289392e-06
-4.689490742748603e-05,3.921100142179057e-05,-2.921500890806783e-05,4.831962996831862e-06
-5.110826896270737e-05,4.6949880925239995e-05,-2.0176858015474863e-05,5.768895789515227e-06
-5.510603659786284e-05,4.7376786824315786e-05,-1.1799626008723862e-05,1.3615454918181058e-05
-5.6240933190565556e-05,3.0235230951802805e-05,-7.999953595572151e-06,2.5660508981673047e-05
-5.2267147111706436e-05,-4.8634078666509595e-06,-1.6136034901137464e-05,3.2831212593009695e-05
-4.540447116596624e-05,-3.6793942854274064e-05,-3.2394760637544096e-05,2.985526225529611e-05
-4.263855589670129e-05,-4.856353552895598e-05,-3.976661173510365e-05,2.3203474484034814e-05
-4.8458266974193975e-05,-3.844726597890258e-05,-3.4217609936604276e-05,2.0959772882633843e-05
-5.971532664261758e-05,-6.0135507737868465e-06,-2.826386844390072e-05,2.275209772051312e-05
-7.22220866009593e-05,4.6429104259004816e-05,-2.509532896510791e-05,2.5175573682645336e-05
-8.441539102932438e-05,9.374357614433393e-05,-2.4810562536004e-05,2.7083689928986132e-05
-9.329466411145404e-05,0.00011108210310339928,-2.4359376766369678e-05,2.7607047741184942e-05
-9.95263981167227e-05,9.911337838275358e-05,-2.6070365493069403e-05,2.4386758013861254e-05
-9.610036795493215e-05,8.86819398147054e-05,-3.2195956009672955e-05,2.2114892999525182e-05
-7.541562808910385e-05,0.00010468756954651326,-3.0589562811655924e-05,2.1327989088604227e-05
-5.1645263738464564e-05,0.00013346649939194322,-2.48408287006896e-05,2.2658310626866296e-05
-3.923310214304365e-05,0.0001499269565101713,-2.495377884770278e-05,2.32474303629715e-05
-3.6133827961748466e-05,0.0001393222773913294,-2.9398164770100266e-05,1.9185685232514516e-05
-3.2049185392679647e-05,0.00010771086090244353,-3.1423747714143246e-05,1.7588617993169464e-05
-2.5853891202132218e-05,7.029336848063394e-05,-2.8845073757111095e-05,1.820191027945839e-05
-2.6255940611008555e-05,4.118282231502235e-05,-2.820100235112477e-05,1.9385883206268772e-05
-3.122353518847376e-05,3.673133687698282e-05,-2.9902970709372312e-05,2.2426291252486408e-05
-3.318095696158707e-05,4.5139113353798166e-05,-2.7180414690519683e-05,2.51975106948521e-05
-3.2188261684495956e-05,4.0671984606888145e-05,-1.91465369425714e-05,2.2755013560527004e-05
-3.449736686889082e-05,1.817272095649969e-05,-1.4167342669679783e-05,1.832741327234544e-05
-3.528378147166222e-05,-3.4265974591107806e-06,-1.081122627510922e-05,1.990120108530391e-05
-3.286255378043279e-05,-1.0410833056084812e-05,-8.742687896301504e-06,2.445483005431015e-05
-3.4488821256672964e-05,-8.126284228637815e-06,-1.0041452696896158e-05,2.186072561016772e-05
-3.9855098293628544e-05,-4.233925665175775e-06,-1.3008267160330433e-05,1.111657365981955e-05
-4.3297724914737046e-05,-1.765239630913129e-06,-1.3683907127415296e-05,1.3469267514665262e-06
-4.2725663661258295e-05,-1.3761788068222813e-05,-1.2682375199801754e-05,-2.385818049788213e-07
-3.9236976590473205e-05,-4.9881393351824954e-05,-1.3693704204342794e-05,5.6006506383710075e-06
-3.143361391266808e-05,-8.297992462757975e-05,-1.6183521438506432e-05,1.2870220416516531e-05
-2.4877726900740527e-05,-7.908500265330076e-05,-2.0003359168185852e-05,2.085886626446154e-05
-2.8920068871229887e-05,-3.8879206840647385e-05,-2.3764230718370527e-05,2.6992360290023498e-05
-4.31713524449151e-05,1.0698133337427862e-05,-2.6909727239399217e-05,2.8091271815355867e-05
-5.517799218068831e-05,4.987862121197395e-05,-2.8539305276353844e-05,2.394431248831097e-05
-5.4911026381887496e-05,7.874610309954733e-05,-2.5908821044140495e-05,2.197412322857417e-05
-4.7978428483475e-05,0.00010139163350686431,-2.273001882713288e-05,2.8996735636610538e-05
-4.4086242269258946e-05,0.00011456968786660582,-2.2674048523185775e-05,3.3849621104309335e-05
-4.731713852379471e-05,0.00012250570580363274,-2.3582704670843668e-05,2.8646561986533925e-05
-5.777394471806474e-05,0.00013268868497107178,-2.5196985006914474e-05,2.1458457922562957e-05
-6.566153024323285e-05,0.00012471673835534602,-2.4886401661206037e-05,2.0878947907476686e-05
-6.360276165651157e-05,8.132040966302156e-05,-2.2952346625970677e-05,2.0850795408478007e-05
-5.747322938987054e-05,2.262744601466693e-05,-2.2787915440858342e-05,2.1740328520536423e-05
-5.39818502147682e-05,-1.584686106070876e-05,-2.7803745979326777e-05,2.3883203539298847e-05
-5.471326585393399e-05,-1.902879012050107e-05,-3.091783946729265e-05,2.056102493952494e-05
-6.005617251503281e-05,-9.988916644942947e-06,-3.0878218240104616e-05,1.4203214959707111e-05
-6.30036520306021e-05,-3.883554200001527e-06,-3.203080268576741e-05,1.435722970200004e-05
-5.627422433462925e-05,5.836161562911002e-06,-2.8941096388734877e-05,2.609167313494254e-05
-4.671992428484373e-05,2.6875350158661604e-05,-2.3570248231408186e-05,3.5976740036858246e-05
-4.256634565535933e-05,5.236407014308497e-05,-2.2966238248045556e-05,3.9178936276584864e-05
-4.467046892386861e-05,7.331563392654061e-05,-2.485994264134206e-05,3.6870485928375274e-05
-4.916853504255414e-05,8.539936243323609e-05,-2.5864796043606475e-05,3.228368950658478e-05
-5.2320985560072586e-05,8.213693945435807e-05,-2.6142139176954515e-05,3.0071925721131265e-05
-5.40600813110359e-05,6.52349044685252e-05,-2.7616631996352226e-05,3.153937359456904e-05
-5.366311233956367e-05,4.6102220949251205e-05,-3.160492269671522e-05,3.383299190318212e-05
-5.259078898234293e-05,3.348417521920055e-05,-3.625146928243339e-05,3.3269941923208535e-05
-5.078122558188625e-05,2.85665228147991e-05,-3.7350968341343105e-05,3.116131847491488e-05
-4.953692769049667e-05,2.8357906558085233e-05,-3.653126259450801e-05,2.9347433155635372e-05
-5.147898627910763e-05,2.435218630125746e-05,-3.762662163353525e-05,2.7918958949157968e-05
-5.212962059886195e-05,1.5176948181760963e-05,-3.6449255276238546e-05,2.6944901037495583e-05
-4.856285886489786e-05,4.8940605665848125e-06,-3.2401167118223384e-05,2.853469231922645e-05
-4.2603162000887096e-05,-3.3029477890522685e-06,-2.9019849534961395e-05,2.8932601708220318e-05
-3.7713853089371696e-05,-3.5786522403213894e-06,-2.6893207177636214e-05,2.7009527912014164e-05
-3.592862776713446e-05,7.08753350409097e-06,-2.4250091883004643e-05,2.477626367181074e-05
-4.029225601698272e-05,3.717296203831211e-05,-2.261482586618513e-05,2.5746936444193125e-05
-4.7123005060711876e-05,9.035466791829094e-05,-2.4251417926279828e-05,2.842550748027861e-05
-4.8101923312060535e-05,0.00013284602027852088,-2.6450959921930917e-05,2.9780925615341403e-05
-4.7909223212627694e-05,0.00012783122656401247,-2.9892882594140247e-05,3.244281469960697e-05
-4.570505552692339e-05,9.607947140466422e-05,-3.2820717024151236e-05,3.6899957194691524e-05
-4.101103331777267e-05,6.603181100217625e-05,-2.998517084051855e-05,3.886407648678869e-05
-4.41048905486241e-05,3.570606713765301e-05,-2.6749155949801207e-05,3.568223473848775e-05
-5.412629252532497e-05,1.411546236340655e-05,-2.5915402147802524e-05,3.170477066305466e-05
-6.440058496082202e-05,8.503041499352548e-06,-2.764004238997586e-05,2.9750084650004283e-05
-6.778097304049879e-05,1.0006339152823784e-06,-2.8487957024481148e-05,2.4860772100510076e-05
-6.419720739359036e-05,-2.9464750696206465e-05,-2.460668474668637e-05,1.7764732547220774e-05
-6.107782246544957e-05,-6.683019455522299e-05,-2.3523081836174242e-05,1.4638841093983501e-05
-6.293334445217624e-05,-9.250192670151591e-05,-2.7744852559408173e-05,1.4483192899206188e-05
-7.242379797389731e-05,-0.00010264186857966706,-3.1742514693178236e-05,1.541685196571052e-05
-8.055050420807675e-05,-9.530246461508796e-05,-3.2318494049832225e-05,1.85811695700977e-05
-7.639003888471052e-05,-6.332698103506118e-05,-3.0436651286436245e-05,2.0933659470756538e-05
-6.485982885351405e-05,-1.7302656488027424e-05,-2.8611268135136925e-05,2.033957207459025e-05
-5.628962389891967e-05,2.5179042495437898e-05,-2.592637792986352e-05,1.787666042218916e-05
-5.0128219299949706e-05,6.570776167791337e-05,-2.495842636562884e-05,1.6898364265216514e-05
-4.366560096968897e-05,0.00010789889347506687,-2.733037581492681e-05,2.1826117517775856e-05
-4.074053140357137e-05,0.00014620419824495912,-2.757253787422087e-05,3.0460691050393507e-05
-4.301413719076663e-05,0.0001662981667323038,-2.321103966096416e-05,3.5832385037792847e-05
-4.911313226330094e-05,0.00015748542500659823,-2.0318073438829742e-05,3.624492455855943e-05
-5.6947581470012665e-05,0.00012960431922692806,-2.3448745196219534e-05,3.274279151810333e-05
-6.650546129094437e-05,0.0001081383743439801,-2.808560930134263e-05,2.6357365641160868e-05
-7.49551982153207e-05,8.94829718163237e-05,-3.0081821023486555e-05,2.3161721401265822e-05
-7.45562429074198e-05,4.777760477736592e-05,-2.988514279422816e-05,2.539127308409661e-05
-6.631276482949033e-05,-1.451784646633314e-05,-2.879877320083324e-05,2.7411517294240184e-05
-5.630638770526275e-05,-5.927558959228918e-05,-2.736367423494812e-05,2.949794907181058e-05
-4.772291867993772e-05,-6.32695373496972e-05,-2.6191610231762752e-05,3.1347994081443176e-05
-4.395440919324756e-05,-3.1684998248238117e-05,-2.534058876335621e-05,2.890180257963948e-05
-4.112283932045102e-05,-1.0261496754537802e-05,-2.1627865862683393e-05,2.8318547265371308e-05
-3.8366910303011537e-05,-1.6270965716103092e-05,-1.6607138604740612e-05,3.229136927984655e-05
-3.615521200117655e-05,-2.7263731681159697e-05,-1.3677448805538006e-05,3.2536852813791484e-05
-3.520613245200366e-05,-3.2710326195228845e-05,-1.438919389329385e-05,2.686617517611012e-05
-3.356260640430264e-05,-2.9712047762586735e-05,-1.7134130757767707e-05,2.3632972443010658e-05
-2.805141411954537e-05,-1.9092736692982726e-05,-1.6693717043381184e-05,2.5764804377104156e-05
-2.8739688787027262e-05,1.0557641871855594e-06,-1.7266542272409424e-05,2.6956402507494204e-05
-3.7342848372645676e-05,3.16688820021227e-05,-2.0752217096742243e-05,2.3292395781027153e-05
-4.315918340580538e-05,5.953292566118762e-05,-2.4333854526048526e-05,1.8026676116278395e-05
-4.4469630665844306e-05,6.936676800251007e-05,-2.6919124138657935e-05,1.7227017451659776e-05
-4.594363781507127e-05,7.411254773614928e-05,-2.7213220164412633e-05,2.3874557882663794e-05
-5.14919993293006e-05,8.723446808289737e-05,-2.5183786419802345e-05,3.0163613701006398e-05
-6.0836631746497005e-05,0.00011203094618394971,-2.2685153453494422e-05,3.052222746191546e-05
