-4.474827801459469e-05,2.8179603759781457e-05,-2.1355243006837554e-05,3.299691525171511e-05
-4.4631062337430194e-05,3.077899236814119e-05,-2.7736346964957193e-05,3.2474792533321306e-05
-4.220694609102793e-05,3.1679395760875195e-05,-3.1101528293220326e-05,3.5364748327992857e-05
-4.090298170922324e-05,2.842862522811629e-05,-2.958606455649715e-05,3.55829470208846e-05
-4.224303484079428e-05,2.4946573830675334e-05,-2.470710751367733e-05,3.068284786422737e-05
-4.229852493153885e-05,3.164547888445668e-05,-2.016520193137694e-05,2.482217132637743e-05
-4.153606278123334e-05,4.0302154957316816e-05,-2.1568590454990044e-05,2.3905655325506814e-05
-4.585271381074563e-05,4.1909650462912396e-05,-2.282250534335617e-05,2.2089250705903396e-05
-5.0584425480337813e-05,3.444708636379801e-05,-2.1734933397965506e-05,1.900606912386138e-05
-5.1721428462769836e-05,2.2985464966041036e-05,-2.076310738630127e-05,1.967844036698807e-05
-5.017370858695358e-05,1.3847346053807996e-05,-2.027573464147281e-05,2.199232403654605e-05
-4.9233251047553495e-05,8.962731953943148e-06,-2.083358049276285e-05,2.3120453988667578e-05
-5.054302528151311e-05,8.711089321877807e-06,-2.372537892370019e-05,2.6431664082338102e-05
-5.6910492276074365e-05,1.0458367796672974e-05,-2.6942927433992736e-05,2.8610651497729123e-05
-6.673643656540662e-05,1.2667943337874021e-05,-2.7149770176038146e-05,2.426226274110377e-05
-7.541989907622337e-05,1.5398023606394418e-05,-2.674151983228512e-05,1.66127756529022e-05
-7.95916494098492e-05,1.7570766431163065e-05,-2.8503720386652276e-05,1.2117365258745849e-05
-8.01760470494628e-05,2.0981853595003486e-05,-3.0507566407322884e-05,1.3238465726317372e-05
-7.658499816898257e-05,2.7522048185346648e-05,-3.0199884349713102e-05,1.628260906727519e-05
-6.843252049293369e-05,2.7928979761782102e-05,-2.9252609238028526e-05,1.772278847056441e-05
-6.0441183450166136e-05,1.4201066733221523e-05,-2.9610717319883406e-05,1.69805371115217e-05
-5.3150659368839115e-05,-6.473613211710472e-06,-3.084985291934572e-05,1.9394832634134218e-05
-4.964584513800219e-05,-2.416441566310823e-05,-2.9450078727677464e-05,2.5072502467082813e-05
-4.788956721313298e-05,-2.7804648198070936e-05,-2.5757442926988006e-05,2.9495884518837556e-05
-4.5135737309465185e-05,-1.6738556951167993e-05,-2.331149335077498e-05,2.6317888114135712e-05
-4.235286178300157e-05,-7.181639375630766e-06,-2.081152342725545e-05,1.8444414308760315e-05
-3.9456772356061265e-05,-3.50866275766748e-06,-1.7070426110876724e-05,1.5666961189708672e-05
-3.5665852919919416e-05,5.1023653213633224e-06,-1.510796482762089e-05,1.9896715457434766e-05
-3.2416828616987914e-05,2.183355354645755e-05,-1.5102228644536808e-05,2.428371226415038e-05
-3.668391582323238e-05,4.218295725877397e-05,-1.4581069990526885e-05,2.614964068925474e-05
-4.4709966459777206e-05,6.357998063322157e-05,-1.4613286111853085e-05,2.7699950805981643e-05
-5.352240987122059e-05,8.135173266055062e-05,-1.5602505300194025e-05,2.8350570573820733e-05
-5.697154483641498e-05,9.181328641716391e-05,-1.9053388314205222e-05,2.7647940441966057e-05
-5.1388138672336936e-05,9.459228749619797e-05,-2.2160951630212367e-05,2.8622846002690494e-05
-5.0771232054103166e-05,9.227573900716379e-05,-2.1907499103690498e-05,3.383354123798199e-05
-5.265286017674953e-05,8.634729601908475e-05,-2.41360830841586e-05,3.767509770113975e-05
-5.3004729124950245e-05,8.057304512476549e-05,-2.674929601198528e-05,3.5916596971219406e-05
-5.467190931085497e-05,7.631564949406311e-05,-2.6431618607603014e-05,3.0329150831676088e-05
-5.955332380835898e-05,7.654557703062892e-05,-2.5479959731455892e-05,2.731534550548531e-05
-6.421325088012964e-05,7.861165067879483e-05,-2.6172692741965875e-05,2.6910198357654735e-05
-6.597019091714174e-05,7.807223300915211e-05,-2.5807166821323335e-05,2.6032999812741764e-05
-6.540974572999403e-05,7.521934458054602e-05,-2.3967182642081752e-05,2.5281824491685256e-05
-6.400278653018177e-05,6.783670687582344e-05,-2.394261900917627e-05,2.5192564862663858e-05
-6.23911400907673e-05,5.813873576698825e-05,-2.6044326659757644e-05,2.6905632694251835e-05
-6.150278932182118e-05,5.187064743950032e-05,-2.7724570827558637e-05,2.779951500997413e-05
-6.141322228359058e-05,5.045585930929519e-05,-2.708753709157463e-05,2.493722968210932e-05
-5.8849323977483436e-05,4.917996920994483e-05,-2.59129265032243e-05,2.2011356122675352e-05
-5.3548232244793326e-05,4.697926124208607e-05,-2.6385541787021793e-05,2.2279697077465244e-05
-5.061500269221142e-05,4.261126377969049e-05,-2.8130056307418272e-05,2.2564679966308177e-05
-5.435536149889231e-05,3.455231853877194e-05,-2.7217520255362615e-05,2.5224511773558334e-05
-6.103108171373606e-05,2.3710621462669224e-05,-2.5947696485673077e-05,2.7759539079852402e-05
-6.463899626396596e-05,1.7510705220047385e-05,-2.726510319916997e-05,2.606403359095566e-05
-6.245472468435764e-05,1.740315019560512e-05,-2.8862044928246178e-05,2.1011452190577984e-05
-5.9622481785481796e-05,2.1559044398600236e-05,-3.043117976631038e-05,1.5034023817861453e-05
-5.4074826039141044e-05,2.467164995323401e-05,-2.8069134714314714e-05,1.3680452866537962e-05
-4.338410508353263e-05,2.492358544259332e-05,-2.45761257247068e-05,1.4943462701921817e-05
-3.372736318851821e-05,2.1373509298427962e-05,-2.3227010387927294e-05,1.545847590023186e-05
-2.8435379135771655e-05,1.4627611562900711e-05,-2.3890614102128893e-05,1.719360807328485e-05
-2.9758659366052598e-05,1.3719558410230093e-05,-2.5815726985456422e-05,1.8525362975196913e-05
-3.391447535250336e-05,1.8961514797410928e-05,-2.3816621251171455e-05,1.621317642275244e-05
-3.3129177609225735e-05,2.431232678645756e-05,-2.1082762032165192e-05,1.3773076716461219e-05
-3.0815710488241166e-05,2.2276884919847362e-05,-2.150885120499879e-05,1.3039040823059622e-05
-3.422705049160868e-05,2.0272596884751692e-05,-2.4526991182938218e-05,1.4747034583706409e-05
-4.2628707888070494e-05,2.3881051674834453e-05,-2.4901037249946967e-05,1.682568654359784e-05
-4.633348362403922e-05,3.115228173555806e-05,-2.412893263681326e-05,1.7250289602088742e-05
-4.7019195335451514e-05,3.741519685718231e-05,-2.5546552933519706e-05,1.7479304005973972e-05
-4.973674367647618e-05,3.828676926787011e-05,-2.912946729338728e-05,1.9057113604503684e-05
-5.489494651556015e-05,3.622773147071712e-05,-3.152812132611871e-05,2.06505719688721e-05
-5.930743282078765e-05,3.382363502169028e-05,-3.269564695074223e-05,2.0373719962663017e-05
-6.16834222455509e-05,2.893002238124609e-05,-3.403434675419703e-05,2.0483630578382872e-05
-6.314239726634696e-05,2.2658299712929875e-05,-3.3987344068009406e-05,2.2575373805011623e-05
-6.286875577643514e-05,2.0718853193102404e-05,-3.330166146042757e-05,2.553540798544418e-05
-6.052126263966784e-05,2.1026789909228683e-05,-3.188622576999478e-05,2.6935682399198413e-05
-5.7280594774056226e-05,1.87782097782474e-05,-3.0272116418927908e-05,2.5932742573786527e-05
-5.42157722520642e-05,1.4913026461726986e-05,-2.9768554668407887e-05,2.3260950911208056e-05
-5.3274910897016525e-05,1.177681224362459e-05,-2.978407974296715e-05,2.089449299091939e-05
-5.2702034736284986e-05,1.0225039659417234e-05,-2.9080601962050423e-05,2.0489491362241097e-05
-4.422601341502741e-05,1.0594640116323717e-05,-3.0387749575311318e-05,2.1291443772497587e-05
-3.558527532732114e-05,1.3390908861765638e-05,-3.219422069378197e-05,2.1625333829433657e-05
-3.53164978150744e-05,2.0950288671883754e-05,-3.0375236747204326e-05,1.817682095861528e-05
-4.049547715112567e-05,3.0370916647370905e-05,-2.6644151148502715e-05,1.4351650861499365e-05
-4.220486152917147e-05,3.423243106226437e-05,-2.7274001695332117e-05,1.2773843081959058e-05
-4.203806020086631e-05,2.976914038299583e-05,-3.0232095014071092e-05,1.3237885468697641e-05
-4.648754111258313e-05,2.144266545656137e-05,-2.9641938454005867e-05,1.733673707349226e-05
-5.2281797252362594e-05,1.2741637874569278e-05,-2.5619516236474738e-05,1.943017923622392e-05
-5.167695780983195e-05,1.241725476575084e-05,-2.3435244656866416e-05,1.98871402972145e-05
-4.604495916282758e-05,2.2791755327489227e-05,-2.411852801742498e-05,1.9988325220765546e-05
-4.299991996958852e-05,3.4792301448760554e-05,-2.54770402534632e-05,2.3543232600786723e-05
-4.3718489905586466e-05,3.810248745139688e-05,-2.587288327049464e-05,2.6106874429387972e-05
-4.542761598713696e-05,3.332853157189675e-05,-2.4611350454506464e-05,2.355460310354829e-05
-4.422338315634988e-05,2.8657092116191052e-05,-2.549606688262429e-05,2.1208157704677433e-05
-4.076141703990288e-05,2.7367841539671645e-05,-3.043737706320826e-05,2.0764140572282486e-05
-3.766468580579385e-05,2.905614019255154e-05,-3.599211777327582e-05,2.2428464944823645e-05
-3.776457378990017e-05,3.315520007163286e-05,-3.784520231420174e-05,2.2970258214627393e-05
-4.1269504436058924e-05,3.603718141675927e-05,-3.511163959046826e-05,2.372924063820392e-05
-4.6410743379965425e-05,3.614768138504587e-05,-3.113938510068692e-05,2.4699404093553312e-05
-4.911266660201363e-05,3.525844294927083e-05,-2.8452714104787447e-05,2.309963383595459e-05
-4.9468457291368395e-05,3.33685202349443e-05,-2.8274402211536653e-05,2.2323723896988668e-05
-4.765753692481667e-05,2.9898366847191937e-05,-2.7716623662854545e-05,2.566217335697729e-05
-4.177356095169671e-05,2.5908866518875584e-05,-2.5838689907686785e-05,2.8640894015552476e-05
-3.755475700017996e-05,2.451657383062411e-05,-2.6062178221764043e-05,2.8223979825270362e-05
-3.91460707760416e-05,2.4428212782368064e-05,-2.7591526304604486e-05,2.451187901897356e-05
-4.184653516858816e-05,2.2259227989707142e-05,-2.6461424567969516e-05,2.177107126044575e-05
-4.573983096634038e-05,1.9909961338271387e-05,-2.242811387986876e-05,2.372023300267756e-05
-5.1782550144707784e-05,2.3686377971898764e-05,-2.067017339868471e-05,2.4946204575826414e-05
-6.047977876733057e-05,3.374784137122333e-05,-2.2022039047442377e-05,2.2154892576509155e-05
-6.99138327036053e-05,4.238487599650398e-05,-2.2557749616680667e-05,2.0272902474971488e-05
-6.819176633143798e-05,4.1603831050451845e-05,-2.18078257603338e-05,2.0968182070646435e-05
-6.08343216299545e-05,3.872305023833178e-05,-2.0972711354261264e-05,2.187363315897528e-05
-5.593122841673903e-05,4.072147930855863e-05,-2.1505426047951914e-05,2.2056479792809114e-05
-5.51143784832675e-05,4.432748755789362e-05,-2.258229324070271e-05,2.036162004515063e-05
-6.021788067300804e-05,4.264094241079874e-05,-2.083690560539253e-05,1.7983691577683203e-05
-6.326545553747565e-05,3.898325303453021e-05,-2.1369736714405008e-05,1.6863135897438042e-05
-6.050046067684889e-05,3.9384358387906104e-05,-2.3411457732436247e-05,1.4200807527231518e-05
-6.1024704336887226e-05,3.966199801652692e-05,-2.2482063286588527e-05,7.509343049605377e-06
-6.625625974265859e-05,3.570642729755491e-05,-1.9153403627569787e-05,3.191149517078884e-06
-6.617653707507998e-05,3.0919349228497595e-05,-1.807508488127496e-05,7.331650976993842e-06
-6.096513970987871e-05,2.914504693762865e-05,-1.9361772501724772e-05,1.173276177723892e-05
-5.3833511628909037e-05,2.9967910450068302e-05,-1.937761226145085e-05,1.365992739010835e-05
-4.8340032662963495e-05,3.192120129824616e-05,-1.9175477063981816e-05,1.4630157238570973e-05
-4.9786700401455164e-05,3.2451564038638026e-05,-2.0057723304489627e-05,1.5404935766127892e-05
-5.385748590924777e-05,3.0657010938739404e-05,-2.1482763258973137e-05,1.7005866538966075e-05
-5.4297772294376045e-05,3.134107464575209e-05,-2.040539402514696e-05,2.0611827494576573e-05
-4.801892282557674e-05,3.4356762625975534e-05,-1.752206480887253e-05,2.5732962967595086e-05
-3.717709842021577e-05,3.5370965633774176e-05,-1.683296613919083e-05,3.1080577173270285e-05
-3.044152799702715e-05,3.770469265873544e-05,-2.0281939214328304e-05,3.493507392704487e-05
-3.1247935112332925e-05,4.2847776057897136e-05,-2.4277254851767793e-05,3.187148104188964e-05
-3.707442374434322e-05,4.474691741052084e-05,-2.5848081349977292e-05,2.5629817173467018e-05
-4.499760689213872e-05,4.2412499169586226e-05,-2.6298066586605273e-05,2.1965706764603965e-05
-4.8957339458866045e-05,4.0949711547000334e-05,-2.8472639314713888e-05,1.9457076632534154e-05
-4.740382428281009e-05,3.882264354615472e-05,-3.2320309401256964e-05,1.959903966053389e-05
-4.696013274951838e-05,3.553127680788748e-05,-3.567089152056724e-05,2.3628052076674066e-05
-4.949904541717842e-05,3.326808655401692e-05,-3.554123031790368e-05,2.40100416704081e-05
-5.029966268921271e-05,3.371830825926736e-05,-3.3005577279254794e-05,2.3729233362246305e-05
-4.7594443458365276e-05,4.0305007132701576e-05,-3.249424844398163e-05,2.45457576966146e-05
-4.108195935259573e-05,5.3613315685652196e-05,-3.491846291581169e-05,2.4474691599607468e-05
-3.877759809256531e-05,6.008527634548955e-05,-3.8292444514809176e-05,2.5636367354309186e-05
-4.557895954349078e-05,5.989981582388282e-05,-3.715478669619188e-05,2.3322361812461168e-05
-5.317340765031986e-05,5.641819734591991e-05,-3.421876681386493e-05,2.1525187548832037e-05
-6.173742440296337e-05,4.4921231165062636e-05,-3.319994721096009e-05,2.458399103488773e-05
-6.279138324316591e-05,3.1541308999294415e-05,-3.560103505151346e-05,2.7302341550239362e-05
-5.635358320432715e-05,1.8630305930855684e-05,-3.864581958623603e-05,2.928670437540859e-05
-5.200202940613963e-05,7.356587957474403e-06,-3.6416644434211776e-05,2.904869324993342e-05
-4.850595723837614e-05,6.121233582234709e-07,-3.1763032893650234e-05,2.7059586500399746e-05
-4.713486123364419e-05,5.242709448793903e-07,-2.9345268558245152e-05,2.5150235160253942e-05
-5.024597703595646e-05,6.475855116150342e-06,-3.0236922611948103e-05,2.688576751097571e-05
-5.74419682379812e-05,1.563021396577824e-05,-2.807498094625771e-05,3.0972725653555244e-05
-6.238363857846707e-05,2.3874159523984417e-05,-2.6326046281610616e-05,3.259894947404973e-05
-6.167387618916109e-05,2.855330239981413e-05,-2.895663601520937e-05,3.0411489206016995e-05
-5.874176713405177e-05,2.7809763196273707e-05,-3.1917155865812674e-05,2.8530435884022154e-05
-5.851679088664241e-05,2.4018929252633825e-05,-3.273229958722368e-05,2.8169075449113734e-05
-5.8408597396919504e-05,2.3313239580602385e-05,-3.307677252450958e-05,2.764185228443239e-05
-5.464712739922106e-05,2.5922203349182382e-05,-3.2859185012057424e-05,2.8503467547125183e-05
-5.052945562056266e-05,2.8444746931199916e-05,-3.0523802706738934e-05,2.9962788175907917e-05
-4.828844248550013e-05,2.7248239348409697e-05,-2.9823424483765848e-05,2.9932079996797256e-05
-4.5560056605609134e-05,2.1963895051158033e-05,-3.387683682376519e-05,2.8123517040512525e-05
-4.272585647413507e-05,1.568597144796513e-05,-3.7543730286415666e-05,2.8524620574899018e-05
-4.034588346257806e-05,1.0997504432452843e-05,-3.561602352419868e-05,2.8778267733287066e-05
-4.05695682275109e-05,1.0498143637960311e-05,-3.265740815550089e-05,2.630995550134685e-05
-4.0737380913924426e-05,2.088262226607185e-05,-2.9496408387785777e-05,2.5538451154716313e-05
-4.10492139053531e-05,3.710890086949803e-05,-2.4111961465678178e-05,2.9994505894137546e-05
-3.992815618403256e-05,4.862620698986575e-05,-1.9854824131471105e-05,3.4135464375140145e-05
-3.672389721032232e-05,4.7948298742994666e-05,-1.9763061573030427e-05,3.232834205846302e-05
-3.736071812454611e-05,4.0393271774519235e-05,-2.3439271899405867e-05,2.8197642677696422e-05
-3.931019818992354e-05,3.742246553883888e-05,-2.276556915603578e-05,2.746299833233934e-05
-4.30814252467826e-05,3.393446240806952e-05,-1.8903674572356977e-05,2.6838231860892847e-05
-4.592971890815534e-05,3.107631710008718e-05,-1.853899630077649e-05,2.1961724996799603e-05
-4.775515844812617e-05,3.2379874028265476e-05,-1.6725780369597487e-05,1.729729956423398e-05
-4.8437665100209415e-05,3.8588132156291977e-05,-1.5609610272804275e-05,1.6915369997150265e-05
-4.8709687689552084e-05,4.8292611609213054e-05,-1.627301207918208e-05,1.9700422853929922e-05
-4.62441639683675e-05,5.476839578477666e-05,-1.952087586687412e-05,2.2146623450680636e-05
-4.2545070755295455e-05,5.25441937497817e-05,-2.1804880816489458e-05,1.971535493794363e-05
-3.9908136386657134e-05,4.588564843288623e-05,-2.37615495279897e-05,1.7710330212139525e-05
-3.677037238958292e-05,4.3112479033879936e-05,-2.491663872206118e-05,2.2628972146776505e-05
-3.676415144582279e-05,4.4145948777440935e-05,-2.2364658434526064e-05,2.9966910005896352e-05
-4.221950803184882e-05,4.4494623580249026e-05,-1.838933167164214e-05,3.1684689020039514e-05
-4.859510954702273e-05,4.2369258153485134e-05,-1.6249210602836683e-05,2.8306771127972752e-05
-4.977472417522222e-05,3.7154190067667514e-05,-1.7082291378756054e-05,2.5185641788993962e-05
-4.993188122170977e-05,3.262767131673172e-05,-1.902390613395255e-05,2.5179062504321337e-05
-5.0972827011719346e-05,3.325109355500899e-05,-2.0860414224443957e-05,2.7011035854229704e-05
-5.164223330211826e-05,3.80755627702456e-05,-2.1084559193695895e-05,2.8438098524929956e-05
-5.408612560131587e-05,4.461604476091452e-05,-2.132181361957919e-05,2.9366890885285102e-05
-5.6810684327501804e-05,4.905832975055091e-05,-2.402955578872934e-05,2.998410491272807e-05
-5.466709626489319e-05,4.712261579697952e-05,-2.815774132614024e-05,3.015634138137102e-05
-5.331440843292512e-05,3.672189632197842e-05,-2.6980324037140235e-05,2.8709160687867552e-05
-5.343055454432033e-05,2.5206223654095083e-05,-2.4796125217108056e-05,2.87310394924134e-05
-5.3136223868932575e-05,1.8492055460228585e-05,-2.609736293379683e-05,3.098983142990619e-05
-5.13814520672895e-05,1.3211991245043464e-05,-2.786088953143917e-05,3.075243512284942e-05
-4.76014320156537e-05,7.997113243618514e-06,-2.75528036581818e-05,3.0058812626521103e-05
-4.2799678340088576e-05,8.348929441126529e-06,-2.5207751605194062e-05,2.8049129468854517e-05
-4.187073864159174e-05,1.8171704141423106e-05,-2.1491674488061108e-05,2.5701916456455365e-05
-4.345558045315556e-05,2.6902594981947914e-05,-1.833058377087582e-05,2.6030809749499895e-05
-4.3109088437631726e-05,2.468849197612144e-05,-1.8097131032845937e-05,2.6721729227574542e-05
-4.639916733140126e-05,2.0087387383682653e-05,-2.260590554215014e-05,2.89009931293549e-05
-4.8009143938543275e-05,1.8085869669448584e-05,-2.5265859221690334e-05,3.105074938503094e-05
-4.8319743655156344e-05,1.1084045581810642e-05,-2.2951129722059704e-05,3.120547626167536e-05
-5.35129765921738e-05,-3.5362520520720864e-06,-1.8279768482898362e-05,2.881377804442309e-05
-6.11692012171261e-05,-1.63156510097906e-05,-1.6472848074045032e-05,2.684987339307554e-05
-6.31069706287235e-05,-2.140876677003689e-05,-2.059286998701282e-05,2.494320142432116e-05
-5.90269009990152e-05,-1.9387602151255123e-05,-2.4312796085723676e-05,2.419802694930695e-05
-5.488950409926474e-05,-1.1455180356279016e-05,-2.6198402338195592e-05,2.3622982553206384e-05
-5.1529917982406914e-05,1.4232718967832625e-06,-2.8967113394173793e-05,2.239240893686656e-05
-5.11106445628684e-05,1.5296429410227574e-05,-3.193062002537772e-05,2.2044989236746915e-05
-5.30052202520892e-05,2.8338659831206314e-05,-3.2657688279869035e-05,2.31272370001534e-05
-5.355626853997819e-05,3.898929571732879e-05,-3.10463183268439e-05,2.296034654136747e-05
-5.3661075071431696e-05,4.804825584869832e-05,-2.9905266273999587e-05,2.25609983317554e-05
-5.601793236564845e-05,5.7665049098432064e-05,-3.114491846645251e-05,2.2130658180685714e-05
-5.668298035743646e-05,6.31150760455057e-05,-3.22141895594541e-05,1.928282654262148e-05
-5.3148341976339e-05,6.149836553959176e-05,-3.14141325361561e-05,1.6499861885677092e-05
-4.919934144709259e-05,5.743724250351079e-05,-3.06619331240654e-05,1.7509068129584193e-05
-4.639980761567131e-05,5.910581967327744e-05,-3.2032436138251796e-05,2.1550502424361184e-05
-4.369399175629951e-05,6.677256897091866e-05,-3.527665830915794e-05,2.347569534322247e-05
-4.491130312089808e-05,7.463661313522607e-05,-3.526078216964379e-05,2.2200470993993804e-05
-5.13508784933947e-05,8.543762669432908e-05,-2.8629465305129997e-05,1.819722274376545e-05
-5.623441393254325e-05,0.00010615185601636767,-2.3848555429140106e-05,1.647368299018126e-05
-5.653857806464657e-05,0.0001284685276914388,-2.2886215447215363e-05,1.6734848031774163e-05
-5.685035648639314e-05,0.0001311534142587334,-2.2490832634503022e-05,1.79804574145237e-05
-6.140147161204368e-05,0.00010564130934653804,-2.249216049676761e-05,2.0461044186959043e-05
-6.411096546798944e-05,7.150240708142519e-05,-2.3555207008030266e-05,2.394126022409182e-05
-6.576654413947836e-05,4.512843588599935e-05,-2.5248591555282474e-05,2.726436832745094e-05
-7.046815881039947e-05,2.7411308110458776e-05,-2.506436430849135e-05,2.6779662221088074e-05
-7.118113717297092e-05,1.5311141396523453e-05,-2.358145866310224e-05,2.2417780201067217e-05
-6.529521488118917e-05,7.598348929604981e-06,-2.3563137801829726e-05,1.7868909708340652e-05
-5.689059253199957e-05,3.455420028330991e-06,-2.370370930293575e-05,1.3944362763140816e-05
-5.144944225321524e-05,4.5647331603504426e-07,-2.1796349756186828e-05,1.3301007129484788e-05
-4.999542215955444e-05,-3.6102760532230604e-06,-1.9619419617811218e-05,1.6160052837221883e-05
-4.7140409151325e-05,-7.98967812443152e-06,-2.003584995691199e-05,2.0190387658658437e-05
-4.4515902118291706e-05,-1.1777152394643053e-05,-1.952567254193127e-05,2.1372470655478537e-05
-4.793965126737021e-05,-1.716968290566001e-05,-1.576935756020248e-05,1.975751729332842e-05
-5.429003795143217e-05,-2.2729152988176793e-05,-1.45782050822163e-05,2.0093191778869368e-05
-6.083443440729752e-05,-2.171398955397308e-05,-1.8280217773281038e-05,2.2601197997573763e-05
-6.495417619589716e-05,-9.2685522758984e-06,-2.2940292183193378e-05,2.573571509856265e-05
-6.457795825554058e-05,9.97694496618351e-06,-2.1638255930156447e-05,2.771571780613158e-05
-6.113348354119807e-05,2.9609976991196163e-05,-1.6273048458970152e-05,2.960641540994402e-05
-5.586784391198307e-05,4.7192617785185575e-05,-1.3509374184650369e-05,3.131143967038952e-05
-5.069523103884421e-05,5.871453322470188e-05,-1.551542845845688e-05,3.10883806378115e-05
-4.761289164889604e-05,6.339119136100635e-05,-1.9225302821723744e-05,2.886334368668031e-05
-4.6229954023147e-05,6.315674545476213e-05,-2.0420240616658702e-05,2.951096394099295e-05
-4.7567111323587596e-05,5.7147386542055756e-05,-1.9810026060440578e-05,3.194305827491917e-05
-5.249353125691414e-05,4.6964578359620646e-05,-2.0179295461275615e-05,3.212163210264407e-05
-4.9593672883929685e-05,3.4629083529580384e-05,-2.284351285197772e-05,2.8868651497759856e-05
-3.500603270367719e-05,2.6338559109717607e-05,-2.6113482817891054e-05,2.2149009964778088e-05
-2.2975815227255225e-05,2.4804654458421282e-05,-2.7188078092876822e-05,1.841938319557812e-05
-2.5242225092370063e-05,2.6308774977223948e-05,-2.6900892407866195e-05,1.9649063688120805e-05
-3.527141234371811e-05,2.7252295694779605e-05,-2.8759528504451737e-05,2.0769299226230942e-05
-4.151782559347339e-05,2.5522098439978436e-05,-3.214953903807327e-05,2.2143743990454823e-05
-4.3783311411971226e-05,1.8905315300798975e-05,-3.4461874747648835e-05,2.5214765628334135e-05
-4.5677501475438476e-05,1.2584700925799552e-05,-3.2582021958660334e-05,2.528456025174819e-05
-4.511716542765498e-05,1.5097623872861732e-05,-2.674331517482642e-05,2.2508911570184864e-05
-4.13324887631461e-05,2.0759047401952557e-05,-2.5456223738729022e-05,2.067292371066287e-05
-3.9204755012178794e-05,2.432507426419761e-05,-2.81691609416157e-05,1.942553171829786e-05
-3.490535164019093e-05,3.087393270106986e-05,-3.022450255230069e-05,2.1165184080018662e-05
-2.7937645427300595e-05,4.33676214015577e-05,-2.9808612453052774e-05,2.4928600396378897e-05
-2.351483635720797e-05,5.677525041392073e-05,-2.7108595531899482e-05,2.8525506422738545e-05
-2.5198531147907488e-05,6.343147106235847e-05,-2.5893998099491e-05,3.249953442718834e-05
-3.402157381060533e-05,5.985832467558794e-05,-2.596669946797192e-05,3.393600491108373e-05
-4.653508949559182e-05,5.129690543981269e-05,-2.488342761353124e-05,2.9957884180475958e-05
-5.691469777957536e-05,3.9195831050165e-05,-2.439179843349848e-05,2.3265516574610956e-05
-6.113904964877293e-05,2.3957269149832428e-05,-2.8700096663669683e-05,1.8640565031091683e-05
-5.963198054814711e-05,9.566795597493183e-06,-3.427983756409958e-05,1.7827729607233778e-05
-5.257295197225176e-05,-1.8450828065397218e-06,-3.669239958981052e-05,1.927107041410636e-05
-4.3053776607848704e-05,-8.569249985157512e-06,-3.4261407563462853e-05,1.9075319869443774e-05
-3.8056474295444787e-05,-7.230684786918573e-06,-3.0473311198875308e-05,1.741093183227349e-05
-4.055332101415843e-05,-9.552308277704924e-09,-3.0126595447654836e-05,1.809133027563803e-05
-4.599340172717348e-05,4.6110008042887785e-06,-3.3104923204518855e-05,1.971599704120308e-05
-4.854465805692598e-05,4.064782388013555e-06,-3.6240719055058435e-05,1.925686410686467e-05
-4.4331056415103376e-05,5.345210411178414e-06,-3.705568451550789e-05,1.7566204405738972e-05
-4.122938116779551e-05,1.5161215742409695e-05,-3.52327260770835e-05,1.5164367141551338e-05
-4.6925251808715984e-05,2.980430144816637e-05,-3.337484668008983e-05,1.409955984854605e-05
-5.266867810860276e-05,3.742138505913317e-05,-3.405445386306383e-05,1.8467715563019738e-05
-5.4464344430016354e-05,3.253826798754744e-05,-3.6404675483936444e-05,2.314559606020339e-05
-5.216282806941308e-05,2.6913692636298947e-05,-3.620212009991519e-05,2.346008477616124e-05
-4.682816143031232e-05,2.346033761568833e-05,-3.516931610647589e-05,2.431174107186962e-05
-4.3448584619909525e-05,1.668990807957016e-05,-3.536635631462559e-05,2.894090721383691e-05
-4.212016938254237e-05,9.235111974703614e-06,-3.368032048456371e-05,3.1390325602842495e-05
-4.435178925632499e-05,8.92116531758802e-06,-3.1747844332130626e-05,2.7428610337665305e-05
-4.571502722683363e-05,1.3184117960918229e-05,-3.315226058475673e-05,2.4479491912643425e-05
-4.3431773519841954e-05,1.70119838003302e-05,-3.4071057598339394e-05,2.253990896861069e-05
-4.015544254798442e-05,2.0678502551163547e-05,-2.968609805975575e-05,1.9899782273569144e-05
-3.8342794141499326e-05,2.218641748186201e-05,-2.574362588347867e-05,1.838045136537403e-05
-3.754294812097214e-05,2.2708289179718122e-05,-2.3918915758258663e-05,1.794468153093476e-05
-3.796386954491027e-05,2.6380062990938313e-05,-2.299575317010749e-05,1.8816495867213234e-05
-3.636430119513534e-05,3.254137118346989e-05,-2.27973323490005e-05,2.1097373974043876e-05
-3.538972305250354e-05,3.666965494630858e-05,-2.2574358808924444e-05,2.3095173673937097e-05
-4.069532224093564e-05,4.029667979921214e-05,-2.2383786927093752e-05,2.270537515869364e-05
-4.860929402639158e-05,4.395226278575137e-05,-2.465562465658877e-05,2.122048863384407e-05
-5.523360596271232e-05,4.898883344139904e-05,-2.642727667989675e-05,2.2014666683389805e-05
-5.887507722945884e-05,5.6885735830292106e-05,-2.4232656869571656e-05,2.455068715789821e-05
-5.882990444661118e-05,6.402134022209793e-05,-2.283618232468143e-05,2.59035914496053e-05
-5.572356531047262e-05,6.523996125906706e-05,-2.6804638764588162e-05,2.588823736004997e-05
-5.4946089221630245e-05,6.469497020589188e-05,-3.244329855078831e-05,2.753800799837336e-05
-5.5812251957831904e-05,6.662189116468653e-05,-3.302441109553911e-05,3.214794924133457e-05
-5.2855109970550984e-05,6.589157419512048e-05,-3.1251049222191796e-05,3.40834230883047e-05
-4.853200152865611e-05,5.890428292332217e-05,-3.122856651316397e-05,3.1433879485121e-05
-4.813745181309059e-05,4.667235043598339e-05,-3.1651812605559826e-05,2.7621083063422702e-05
-5.1521987188607454e-05,3.6887646274408326e-05,-3.2525382266612723e-05,2.1668249246431515e-05
-6.119869067333639e-05,3.570689295884222e-05,-3.384754018043168e-05,1.7590877178008668e-05
-7.20698808436282e-05,4.184894714853726e-05,-3.423733141971752e-05,1.8530028683017008e-05
-7.156498759286478e-05,4.4123094994574785e-05,-3.2037118216976523e-05,2.0074712665518746e-05
-5.825744301546365e-05,3.602835568017326e-05,-2.8583950552274473e-05,2.5520783310639672e-05
-4.809632810065523e-05,2.6596746465656906e-05,-2.888506423914805e-05,3.101872789557092e-05
-4.869475742452778e-05,2.272413985338062e-05,-2.887580012611579e-05,3.0318555218400434e-05
-5.450793105410412e-05,2.730571031861473e-05,-2.600723564682994e-05,2.3389977286569774e-05
-6.203147495398298e-05,3.138254032819532e-05,-2.1959751393296756e-05,1.653525214351248e-05
-6.837705586804077e-05,3.34244359692093e-05,-2.0048149963258766e-05,1.5327859728131443e-05
-6.796142406528816e-05,3.729339732672088e-05,-2.070530354103539e-05,1.8717935745371506e-05
-6.267050775932148e-05,4.0828221244737506e-05,-1.9375229385332204e-05,2.0981988200219348e-05
-5.692156992154196e-05,4.62683237856254e-05,-1.5386407540063374e-05,2.0336763554951176e-05
-5.365883043850772e-05,5.307907849783078e-05,-1.1951467968174256e-05,2.0878827854176052e-05
-5.288926331559196e-05,5.9745445469161496e-05,-1.3404084711510222e-05,2.147717350453604e-05
-5.404261901276186e-05,6.161635246826336e-05,-1.8083306713378988e-05,2.311113348696381e-05
-5.6673045037314296e-05,5.627275459119119e-05,-2.326950379938353e-05,2.6975851142196916e-05
-5.742058056057431e-05,4.533604078460485e-05,-2.541835783631541e-05,2.920635961345397e-05
-5.31809164385777e-05,3.73076691175811e-05,-2.4548520741518587e-05,2.966570173157379e-05
-4.515391992754303e-05,3.6891462514176965e-05,-2.4042496079346165e-05,3.136500163236633e-05
-4.130872548557818e-05,4.1719475120771676e-05,-2.5236458895960823e-05,3.217745688743889e-05
-4.577116123982705e-05,4.667441680794582e-05,-2.6825186068890616e-05,2.862368455680553e-05
-5.3391897381516173e-05,4.594218262354843e-05,-2.641254468471743e-05,2.3169515770860016e-05
-5.6280125136254355e-05,3.6996676499256864e-05,-2.6881914891419e-05,1.984514165087603e-05
-5.510512346518226e-05,2.3925047571538016e-05,-2.9254670153022744e-05,1.8659509805729613e-05
-5.331391002982855e-05,1.6698970284778625e-05,-2.970913192257285e-05,2.3226093617267907e-05
-5.179069557925686e-05,2.225409116363153e-05,-2.618012877064757e-05,2.9923025067546405e-05
-5.222636536927894e-05,3.420612483751029e-05,-2.1831907361047342e-05,3.0618233722634614e-05
-5.622740718536079e-05,4.1123872506432235e-05,-1.9618442820501514e-05,2.799266621877905e-05
-5.367799894884229e-05,4.029379124403931e-05,-1.5620054909959435e-05,2.6604526283335872e-05
-4.41984084318392e-05,3.5223321901867166e-05,-1.4940032997401431e-05,2.5895138605847023e-05
-3.937648216378875e-05,3.7422330933623016e-05,-1.798461926227901e-05,2.1048044800409116e-05
-4.047388210892677e-05,4.389627429191023e-05,-1.9840366803691722e-05,1.8178669051849283e-05
-4.0362676372751594e-05,4.659184560296126e-05,-2.002129258471541e-05,1.9333041564095765e-05
-4.282734516891651e-05,5.05931893712841e-05,-1.6585572666372173e-05,1.7009369912557304e-05
-4.7410489059984684e-05,5.229577072896063e-05,-1.4644333532487508e-05,1.5782607079017907e-05
-4.827876909985207e-05,4.71638522867579e-05,-1.5293951946659945e-05,1.709222669887822e-05
-4.6945766371209174e-05,3.6303750675870106e-05,-1.8096379790222272e-05,1.9914607037208043e-05
-4.743226963910274e-05,2.2457828890765086e-05,-1.9141121811117046e-05,2.0995654267608188e-05
-5.225068161962554e-05,1.2420287930581253e-05,-2.0924131604260765e-05,2.0427009076229297e-05
-5.5792297644075006e-05,1.097472159017343e-05,-2.4641380150569603e-05,1.8940674635814503e-05
-5.2202500228304416e-05,6.349849172693212e-06,-2.8069063773727976e-05,1.5067929780343547e-05
-4.590427124639973e-05,-1.4507455489365384e-05,-3.068521982640959e-05,9.831572242546827e-06
-4.349234950495884e-05,-4.1979263187386096e-05,-3.065312921535224e-05,7.238382295327028e-06
-4.3840191210620105e-05,-5.7334185839863494e-05,-3.05380453937687e-05,7.589886990899686e-06
-4.470134081202559e-05,-5.753973891842179e-05,-3.220151484129019e-05,9.251872143067885e-06
-4.460573836695403e-05,-4.850283949053846e-05,-3.237181226722896e-05,1.27642206280143e-05
-4.346790228737518e-05,-3.224012834834866e-05,-2.940259946626611e-05,1.744754808896687e-05
-4.282039662939496e-05,-1.3919916455051862e-05,-2.7150303139933385e-05,2.0878931536572054e-05
-4.1730472730705515e-05,4.821627044293564e-06,-2.6970765247824602e-05,2.0388830307638273e-05
-3.965963696828112e-05,2.7387350201024674e-05,-2.964942359540146e-05,1.704724127193913e-05
-3.87482468795497e-05,4.846333104069345e-05,-3.331682819407433e-05,1.2954590602021199e-05
-3.784640648518689e-05,6.349968316499144e-05,-3.396622560103424e-05,1.4832202396064531e-05
-3.3114654797827825e-05,7.517419726355001e-05,-3.225293767172843e-05,2.0404102542670444e-05
-2.3044467525323853e-05,7.764299516566098e-05,-3.0165911084623076e-05,2.3312066332437098e-05
-2.2953188818064518e-05,7.122314855223522e-05,-2.870040771085769e-05,2.552634396124631e-05
-3.606927566579543e-05,6.557471351698041e-05,-2.9007062039454468e-05,2.8423504772945307e-05
-4.6018823923077434e-05,6.646419205935672e-05,-2.6550493203103542e-05,2.8903610655106604e-05
-4.527295823208988e-05,6.837792170699686e-05,-2.2241330952965654e-05,2.6437934138812125e-05
-4.273127342457883e-05,6.30838330835104e-05,-1.6857924492796883e-05,2.5315654056612402e-05
-4.1794392018346116e-05,4.63846190541517e-05,-1.4991657735663466e-05,2.4491213480359875e-05
-4.036123209516518e-05,3.6050343624083325e-05,-1.975466511794366e-05,2.4466868126182817e-05
-4.285595423425548e-05,4.0648828871781006e-05,-2.3559650799143128e-05,2.9542285119532607e-05
-5.1347909902688116e-05,4.439643817022443e-05,-2.2617075956077315e-05,3.238703720853664e-05
-6.17367695667781e-05,4.298115527490154e-05,-2.093166040140204e-05,3.127186209894717e-05
-6.514644337585196e-05,3.779543112614192e-05,-2.1261454094201326e-05,2.9160639314795844e-05
-6.52818926027976e-05,3.395983003429137e-05,-2.2926162273506634e-05,2.962847429444082e-05
-6.566615775227547e-05,3.181633655913174e-05,-2.4553992261644453e-05,3.111287878709845e-05
-6.193794251885265e-05,2.965217390737962e-05,-2.4995842977659777e-05,2.879913881770335e-05
-5.595466063823551e-05,2.768769445538055e-05,-2.4122513423208147e-05,2.2900590920471586e-05
-5.469274765346199e-05,2.5742674552020617e-05,-2.480365765222814e-05,1.9411339962971397e-05
-5.831741145811975e-05,1.915025495691225e-05,-2.944547486549709e-05,2.146569204342086e-05
-6.408207991626114e-05,1.169004008261254e-05,-3.416395338717848e-05,2.486498669895809e-05
-6.911133823450655e-05,1.3280428902362473e-05,-3.434326936258003e-05,2.6021913072327152e-05
-7.171629840740934e-05,2.5175666451104917e-05,-2.8091508283978328e-05,2.5167521016555838e-05
-7.209957402665168e-05,3.8675658288411796e-05,-2.1376819859142415e-05,2.5683079002192244e-05
-6.943605694686994e-05,4.49503495474346e-05,-1.9476739907986484e-05,2.5074636141653173e-05
-6.238130299607292e-05,4.147893196204677e-05,-2.0395385945448652e-05,2.366098851780407e-05
-5.22418376931455e-05,3.1235740607371554e-05,-1.936078115249984e-05,2.5218674636562355e-05
-4.590837852447294e-05,2.330482311663218e-05,-1.9667773813125677e-05,2.719993244681973e-05
-4.42762284365017e-05,2.019297971855849e-05,-2.4623468561912887e-05,2.6876008632825688e-05
-4.3162090150872245e-05,1.9494980733725242e-05,-2.7236481400905177e-05,2.70382224698551e-05
-4.0303544665221125e-05,2.4122293325490318e-05,-2.6217712729703635e-05,2.54484657489229e-05
-3.792804272961803e-05,2.689408756850753e-05,-2.586836853879504e-05,2.1504070900846273e-05
-4.3462605390232056e-05,2.3161403078120202e-05,-2.3897484425106086e-05,2.195090382883791e-05
-5.0727889174595475e-05,2.3475053239963017e-05,-2.1917299818596803e-05,2.2900063413544558e-05
-5.5237036576727405e-05,2.559790482337121e-05,-2.0583976947818883e-05,2.0109606339246966e-05
-5.82903521717526e-05,2.681839032447897e-05,-1.8241928046336398e-05,2.0814268282265402e-05
-5.6354539992753416e-05,3.105364157818258e-05,-1.4945032489777077e-05,2.5222101612598635e-05
-5.232718831393868e-05,3.709875818458386e-05,-1.12723428173922e-05,2.6065938072861172e-05
-4.7445137170143425e-05,3.931190076400526e-05,-1.253395475941943e-05,2.3958456949912943e-05
-4.736826667794958e-05,3.6937995901098475e-05,-1.5967354556778446e-05,2.4459855922032148e-05
-5.2696068451041356e-05,3.1501669582212344e-05,-1.8258111595059745e-05,2.475179462635424e-05
-5.783057713415474e-05,2.0937626686645672e-05,-2.2106722099124454e-05,2.5293467842857353e-05
-5.754932499257848e-05,1.170706582342973e-05,-2.4904844394768588e-05,2.612400203361176e-05
-5.486454756464809e-05,1.0560262126091402e-05,-2.56197017733939e-05,2.821439011313487e-05
-5.514578151633032e-05,1.3984091310703661e-05,-2.5172706955345348e-05,2.963070073747076e-05
-5.563530430663377e-05,1.728069400996901e-05,-2.18926743400516e-05,3.0891402275301516e-05
-5.1241982873762026e-05,1.9072929717367515e-05,-1.8188307876698673e-05,3.2665917387930676e-05
-4.184567660558969e-05,2.3393826268147677e-05,-1.6810248780529946e-05,3.429060961934738e-05
-3.51592680090107e-05,3.433459278312512e-05,-1.7938051314558834e-05,3.486822606646456e-05
-3.613016087911092e-05,5.08284465468023e-05,-1.9488774341880344e-05,3.2950672903098166e-05
-3.951904727728106e-05,6.851437501609325e-05,-2.0423311070771888e-05,3.041188210772816e-05
-3.817072865786031e-05,8.014820923563093e-05,-2.0900410163449124e-05,3.0070003049331717e-05
-3.688145807245746e-05,8.001940295798704e-05,-2.1791407561977394e-05,3.417356128920801e-05
-4.148601874476299e-05,7.17121729394421e-05,-2.1172541892156005e-05,3.827227192232385e-05
-4.8651592805981636e-05,6.529510574182495e-05,-2.0199950085952878e-05,4.097924829693511e-05
-4.965563857695088e-05,6.327110168058425e-05,-2.3523945856140926e-05,3.95601564378012e-05
-4.940729195368476e-05,6.29444039077498e-05,-2.721513192227576e-05,3.329466562718153e-05
-5.397024142439477e-05,5.856536154169589e-05,-2.9666993214050308e-05,2.568745730968658e-05
-5.703580973204225e-05,4.498923954088241e-05,-3.2352782000089064e-05,1.8147280570701696e-05
-5.018195588490926e-05,3.419023778405972e-05,-3.27414927596692e-05,1.8521424863138236e-05
-4.2926658352371305e-05,2.6769394025905058e-05,-3.2944295526249334e-05,2.4721268346183933e-05
-4.843174247071147e-05,1.4998956430645194e-05,-3.342728450661525e-05,2.5151668523903936e-05
-5.5454856919823214e-05,1.0997953722835518e-05,-2.9651495424332097e-05,2.0299401512602344e-05
-6.056630445527844e-05,1.9812856407952495e-05,-2.4528533685952425e-05,1.5564539353363216e-05
-6.376835517585278e-05,3.0038729164516553e-05,-2.2773267119191587e-05,1.397757023369195e-05
-6.12031581113115e-05,3.4548851544968784e-05,-2.379147736064624e-05,1.4294704669737257e-05
-5.783250162494369e-05,3.2650994398863986e-05,-2.577014129201416e-05,1.8210490452474914e-05
-5.821696686325595e-05,2.7955265977652743e-05,-2.717017378017772e-05,2.0722829503938556e-05
-6.171980930957943e-05,2.3733342459308915e-05,-2.4758492145338096e-05,2.212561776104849e-05
-6.479279545601457e-05,1.651879028941039e-05,-2.1763495169579983e-05,2.191948806284927e-05
-6.554461288033053e-05,1.1504390386107843e-05,-2.1308418581611477e-05,2.2159627405926585e-05
-6.429785571526736e-05,1.2756991054629907e-05,-2.1503898096852936e-05,2.1615227524307556e-05
-6.271741585806012e-05,1.741878077154979e-05,-2.117778240062762e-05,1.9892482669092715e-05
-5.740868436987512e-05,1.7985748854698613e-05,-2.0860659788013436e-05,1.9084041923633777e-05
-4.925839675706811e-05,1.3606661923404317e-05,-2.006327486014925e-05,1.9299948689877056e-05
-4.4795455323765054e-05,1.2169898582214955e-05,-2.0512268747552298e-05,2.0195398974465206e-05
-4.511851511779241e-05,1.7285057765548117e-05,-2.512835453671869e-05,1.946229713212233e-05
-4.626714144251309e-05,2.3100701582734473e-05,-3.121003101114184e-05,2.0604637029464357e-05
-4.798039299203083e-05,2.6050591259263456e-05,-3.5550747270463035e-05,2.380273144808598e-05
-4.8650843382347375e-05,2.6490501113585196e-05,-3.503530751913786e-05,2.486465746187605e-05
-4.818415982299484e-05,2.6357854949310422e-05,-3.306541111669503e-05,2.232558290415909e-05
-4.933623495162465e-05,3.171112257405184e-05,-3.345596633153036e-05,2.1163841665838845e-05
-4.9995949666481465e-05,3.8953123294049874e-05,-3.1601477530784905e-05,2.0452715034480207e-05
-4.9611458962317556e-05,4.336575875640847e-05,-3.104014103882946e-05,2.0592351575032808e-05
-4.818205343326554e-05,4.636739322450012e-05,-3.3556472772033885e-05,2.1620478946715593e-05
-4.469911436899565e-05,4.8065357987070456e-05,-3.5018612834392115e-05,2.2282507416093722e-05
-4.453369547263719e-05,5.182266977499239e-05,-3.4611195587785915e-05,2.1216814275248908e-05
-4.5340009819483384e-05,5.700169276678935e-05,-3.3703792723827064e-05,1.979979788302444e-05
-4.647240348276682e-05,5.587481791735627e-05,-3.4348282497376204e-05,2.0591445718309842e-05
-5.366665209294297e-05,5.5196192988660187e-05,-3.290087261120789e-05,2.1922140149399638e-05
-5.7550478231860325e-05,6.117334851296619e-05,-3.25114160659723e-05,2.0473278709687293e-05
-5.757314647780731e-05,6.322030094452202e-05,-3.641368675744161e-05,1.948955650732387e-05
-5.507788227987476e-05,5.3715979447588325e-05,-3.921112875104882e-05,1.970488483493682e-05
-5.006121136830188e-05,4.010876000393182e-05,-3.828111584880389e-05,2.2261456251726486e-05
-4.8518861149204895e-05,2.887873415602371e-05,-3.629402272053994e-05,2.5106033717747778e-05
-5.1800951041514054e-05,2.4409813704551198e-05,-3.403621303732507e-05,2.619777478685137e-05
-5.2918203437002376e-05,2.58940999628976e-05,-3.449789437581785e-05,2.5847097276709974e-05
-5.0332015234744176e-05,2.8847753128502518e-05,-3.602414653869346e-05,2.4370410756091587e-05
-5.027122824685648e-05,2.9876291591790505e-05,-3.529410605551675e-05,2.2594822439714335e-05
-5.397013228503056e-05,2.903482709371019e-05,-3.2996744266711175e-05,2.0822646547458135e-05
-5.73829238419421e-05,2.5622332032071427e-05,-3.2007534173317254e-05,1.993046134884935e-05
-5.496613448485732e-05,2.1096589989610948e-05,-3.0845669243717566e-05,2.130715802195482e-05
-4.825224823434837e-05,1.9164799596183002e-05,-2.918751306424383e-05,2.4022116122068837e-05
-4.300723230699077e-05,1.8678414562600665e-05,-2.6389619961264543e-05,2.5803117750911042e-05
-4.2537027184152976e-05,1.891746615001466e-05,-2.275130282214377e-05,2.5702311177155934e-05
-4.1599989344831556e-05,1.5634512237738818e-05,-2.3891394448583014e-05,2.3658840291318484e-05
-3.541886690072715e-05,8.809795417619171e-07,-2.5394963813596405e-05,2.357305675104726e-05
-2.4508522983524017e-05,-2.5414350602659397e-05,-2.5463908968959004e-05,2.6585419618641026e-05
-1.9727494873222895e-05,-4.8463873099535704e-05,-2.3863725800765678e-05,2.9178047043387778e-05
-2.5340017600683495e-05,-6.182737706694752e-05,-1.9623359548859298e-05,2.8552694857353345e-05
-2.8503647627076134e-05,-7.193338387878612e-05,-1.559918928251136e-05,2.8627677238546312e-05
-2.3254251573234797e-05,-7.925017416710034e-05,-1.7507174561615102e-05,3.0012239221832715e-05
-2.0411991499713622e-05,-7.350258238147944e-05,-2.2085279852035455e-05,3.0384402634808794e-05
-2.0038905859109946e-05,-5.031990440329537e-05,-2.416941788396798e-05,2.6197238184977323e-05
-1.8518598153605126e-05,-1.2923099347972311e-05,-2.6549489120952785e-05,2.27112013817532e-05
-1.8814465875038877e-05,2.885371577576734e-05,-2.593906356196385e-05,2.4057690097833984e-05
-2.091274654958397e-05,6.925404886715114e-05,-2.4551673050154932e-05,2.613236938486807e-05
-2.8727912649628706e-05,0.0001154612036771141,-2.5328403353341855e-05,2.7489830245031044e-05
-3.9621201722184196e-05,0.00015425273159053177,-2.4135255443979986e-05,2.592147393443156e-05
-4.931624425807968e-05,0.00016470946138724685,-2.2561416699318215e-05,2.1192512576817535e-05
-5.308933032210916e-05,0.00014854427718091756,-2.356349978072103e-05,1.8174339857068844e-05
-5.528840483748354e-05,0.0001193112984765321,-2.289822805323638e-05,1.7826605471782386e-05
-6.51203008601442e-05,9.493149991612881e-05,-1.85703975148499e-05,1.8878916307585314e-05
-8.272532431874424e-05,8.7424908997491e-05,-1.854371112131048e-05,2.1355956050683744e-05
-9.132703416980803e-05,9.377056994708255e-05,-2.4953360480139963e-05,2.2877582523506135e-05
-8.811459701973945e-05,0.00010088415001519024,-3.080062015214935e-05,2.0980194676667452e-05
-8.42730441945605e-05,9.215849422616884e-05,-3.241100785089657e-05,1.750690717017278e-05
-8.426413114648312e-05,6.377192039508373e-05,-3.413000740692951e-05,1.4513499081658665e-05
-8.366476686205715e-05,3.365821612533182e-05,-3.6579564039129764e-05,1.4710595678479876e-05
-7.695155363762751e-05,1.935102955030743e-05,-3.747705341083929e-05,1.8063205061480403e-05
-6.907025090185925e-05,1.996600258280523e-05,-3.431571167311631e-05,2.0611965737771243e-05
-6.398557889042422e-05,2.455358480801806e-05,-3.0401684853131883e-05,2.2104184608906507e-05
-5.990022327750921e-05,2.5879138775053434e-05,-2.716748531383928e-05,2.569270509411581e-05
-5.5501041060779244e-05,2.2489868570119143e-05,-2.3772401618771255e-05,2.9602872018585913e-05
-5.5358486861223355e-05,1.6852914995979518e-05,-2.2808158973930404e-05,2.8532509531942196e-05
-5.562980004469864e-05,1.2990475624974351e-05,-2.2285166778601706e-05,2.3860118744778447e-05
-5.461458567879163e-05,1.2052991223754361e-05,-1.8759357772069052e-05,2.133766065526288e-05
-5.266394146019593e-05,1.4529411600960884e-05,-1.67558991961414e-05,2.3324962967308238e-05
-4.993790571461432e-05,2.4956356355687603e-05,-1.930596772581339e-05,2.4579258024459705e-05
-5.147273259353824e-05,3.182532236678526e-05,-2.0471054085646756e-05,2.272525307489559e-05
-5.5274336773436517e-05,3.105474024778232e-05,-2.159071300411597e-05,2.1183823264436796e-05
-5.5901353334775195e-05,3.907625796273351e-05,-2.3559310648124665e-05,1.8512029782868922e-05
-5.410061567090452e-05,4.8218895244644955e-05,-2.36673640756635e-05,1.7427761122235097e-05
-5.257681550574489e-05,4.791468018083833e-05,-2.3391710783471353e-05,2.0053763364558108e-05
-5.711074118153192e-05,4.6667737478856e-05,-2.3355836674454622e-05,2.2320664356811903e-05
-6.529120582854375e-05,4.588635783875361e-05,-2.261605186504312e-05,2.449310341035016e-05
-6.720683450112119e-05,4.194649955024943e-05,-2.3808399419067428e-05,2.435191890981514e-05
-6.151566049084067e-05,3.491265670163557e-05,-2.357115226914175e-05,2.296614729857538e-05
-5.8113746490562335e-05,2.534405757614877e-05,-2.1541371097555384e-05,2.3412520022247918e-05
-5.9548190620262176e-05,1.9039867765968665e-05,-2.0680608940892853e-05,2.6088966478710063e-05
-6.135765579529107e-05,1.9003851775778458e-05,-2.1620571715175174e-05,2.7834928914671764e-05
-5.89632400078699e-05,1.906649413285777e-05,-2.2420537789002992e-05,2.7293885068502277e-05
-5.569988934439607e-05,1.340933613391826e-05,-2.0717125153169036e-05,2.3292823243536986e-05
-5.358297858037986e-05,5.284297003527172e-06,-2.1605987058137543e-05,1.783068000804633e-05
-5.120435525896028e-05,-2.1992073016008362e-06,-2.488660356902983e-05,1.4762148566660471e-05
-4.817424269276671e-05,-9.484049769525882e-06,-2.5806335543165915e-05,1.664915725996252e-05
-4.492481457418762e-05,-1.3010613656661008e-05,-2.61024779319996e-05,2.1222984287305735e-05
-4.179171082796529e-05,-6.319929070741637e-06,-2.7090425646747462e-05,2.5392819225089625e-05
-3.7035129935247824e-05,8.449252163700294e-06,-2.5628583898651414e-05,2.763763586699497e-05
-3.536206713761203e-05,2.1021942302468233e-05,-2.3490647436119616e-05,2.6125308068003505e-05
-3.826820829999633e-05,2.354922798986081e-05,-2.3389586203848012e-05,2.474123721185606e-05
-4.074579192092642e-05,2.015970676438883e-05,-2.4838840545271523e-05,2.273116297146771e-05
-3.757312151719816e-05,2.1955656848149374e-05,-2.6761857952806167e-05,1.9439121388131753e-05
-3.264259430579841e-05,3.193750308128074e-05,-2.5344070309074596e-05,2.0048366422997788e-05
-3.0044089726288803e-05,4.215882654534653e-05,-2.3094029529602267e-05,2.500917798897717e-05
-2.7869515179190785e-05,4.616316800820641e-05,-2.32160364248557e-05,2.8431813916540705e-05
-1.9477607565931976e-05,4.9046615458792076e-05,-2.3124597646528855e-05,2.9204229576862417e-05
-1.2354904356470797e-05,5.0712154916254804e-05,-2.26364591071615e-05,2.8370408472255804e-05
-1.1813473975053057e-05,5.062183117843233e-05,-2.2400543457479216e-05,2.623568616400007e-05
-6.625486548728077e-06,4.768612052430399e-05,-2.511401726223994e-05,2.364499232498929e-05
-1.973621920114965e-06,4.330409865360707e-05,-2.831022720783949e-05,2.1587937226286158e-05
-9.175359082291834e-06,4.335420089773834e-05,-2.8428101359168068e-05,2.1535804989980534e-05
-2.134951137122698e-05,4.303320747567341e-05,-2.6122757844859734e-05,2.0154795492999256e-05
-2.7028980184695683e-05,3.974871287937276e-05,-2.3335458536166698e-05,1.7160193237941712e-05
-2.6135781808989123e-05,3.3493641240056604e-05,-2.2874750357004814e-05,1.370546488033142e-05
-2.7295762265566736e-05,2.7446878448245116e-05,-2.473768290656153e-05,1.0711963113863021e-05
-3.184379238518886e-05,2.4815519282128662e-05,-2.879905150621198e-05,1.383682683808729e-05
-3.603005097829737e-05,2.3775699446559884e-05,-3.0954925023252144e-05,2.0877250790363178e-05
-3.834643212030642e-05,2.2418642402044497e-05,-2.8407775971572846e-05,2.7358786610420793e-05
-4.3065694626420736e-05,1.842996607592795e-05,-2.6069390514749102e-05,2.9332484700717032e-05
-4.8930243792710826e-05,1.5174277905316558e-05,-2.6932066248264164e-05,2.7034002414438874e-05
-5.019616583012976e-05,1.6324021999025717e-05,-2.978260090458207e-05,2.2751306460122578e-05
-4.832498962059617e-05,1.936216722242534e-05,-3.230139191146009e-05,2.1521664166357368e-05
-4.792095933225937e-05,2.2362397430697456e-05,-3.3657332096481696e-05,2.3508451704401523e-05
-4.674497904488817e-05,2.600301377242431e-05,-3.365996235515922e-05,2.511064667487517e-05
-4.374580385047011e-05,2.854688500519842e-05,-3.083189585595392e-05,2.4567634682171047e-05
-4.573241312755272e-05,2.8983669835724868e-05,-2.8299584300839342e-05,2.2147714844322763e-05
-5.233901538304053e-05,2.8765529350494035e-05,-2.97382430289872e-05,2.068164394586347e-05
-5.726164090447128e-05,2.66662027570419e-05,-3.154594742227346e-05,2.143997153325472e-05
-5.9119895013282076e-05,2.25849544222001e-05,-3.126404408249073e-05,2.3704142222413793e-05
-6.013176607666537e-05,2.1190537154325284e-05,-2.944935840787366e-05,2.4318786017829552e-05
-6.0739701439160854e-05,2.2475711375591345e-05,-2.9082655601087026e-05,2.7642798158922233e-05
-6.140909681562334e-05,2.3440115910489112e-05,-3.055660636164248e-05,3.271643799962476e-05
-6.230956932995468e-05,2.6708592486102134e-05,-3.1118768674787134e-05,2.9908231226727366e-05
-5.951325874775648e-05,3.229997673770413e-05,-3.517365621519275e-05,2.66639453911921e-05
-5.1850671297870576e-05,3.2403018849436194e-05,-3.8509566365974024e-05,2.7906855393666774e-05
-4.646846718969755e-05,2.5405146516277455e-05,-3.338561873533763e-05,2.851613680832088e-05
-4.869906842941418e-05,1.8498094505048357e-05,-2.9896704290877096e-05,2.5878625820041634e-05
-5.564172170124948e-05,2.091443275276106e-05,-3.132088386337273e-05,2.0946672520949505e-05
-5.933492138865404e-05,3.300227763247676e-05,-3.056088826269843e-05,1.9358045392436907e-05
-6.14098462392576e-05,4.386521322885528e-05,-2.7865780793945305e-05,1.8419930711388588e-05
-6.177587056299672e-05,4.815964348381385e-05,-2.7550675440579653e-05,1.8977021682076156e-05
-5.769835479441099e-05,4.6710385504411533e-05,-3.4889406379079446e-05,2.061764826066792e-05
-5.3299954743124545e-05,4.235446249367669e-05,-4.0179380448535085e-05,2.3201129806693643e-05
-5.2402556320885196e-05,3.9373862819047645e-05,-3.67483553418424e-05,2.499725451343693e-05
-5.205778143135831e-05,3.9933289372129366e-05,-2.973894152091816e-05,2.778853740892373e-05
-5.1655759307323024e-05,4.287338015274145e-05,-2.282056084368378e-05,3.0782735848333687e-05
-5.411160964285955e-05,4.4059048377675936e-05,-1.8394654034636915e-05,3.2267394999507815e-05
-5.787237751064822e-05,3.7389771023299545e-05,-1.9365543266758323e-05,3.2421419746242464e-05
-5.9324516769265756e-05,2.5150660803774372e-05,-2.3758844690746628e-05,3.025993828487117e-05
-5.9176312788622454e-05,1.4978363651607651e-05,-2.412950743746478e-05,2.7591455364017747e-05
-5.970650818198919e-05,7.732588528597262e-06,-2.1773152184323408e-05,2.6340352633269504e-05
-5.94285229453817e-05,3.650814619504672e-07,-2.1484511307789944e-05,2.6882573365583085e-05
-5.710629920940846e-05,-3.905234962076065e-07,-2.3764578145346604e-05,2.9026599804637954e-05
-5.806115586892702e-05,8.928761417337228e-06,-2.739749470492825e-05,3.211761577404104e-05
-6.387817848008126e-05,1.916626570164226e-05,-3.00680967484368e-05,3.2446187105961144e-05
-6.615354504901916e-05,2.6397598048788495e-05,-3.0295008400571533e-05,2.856576793419663e-05
-6.414048402803019e-05,3.2017353078117594e-05,-2.739365299930796e-05,2.2601885575568303e-05
-6.440773722715676e-05,3.1800209399079904e-05,-2.41272082348587e-05,2.144222344213631e-05
-6.448903150158003e-05,2.7608151867752895e-05,-2.4511107767466456e-05,2.588790812296793e-05
-6.151146226329729e-05,2.5442934202146716e-05,-2.4222739739343524e-05,3.1651175959268585e-05
-6.0805959947174415e-05,2.5787556296563707e-05,-2.4394026695517823e-05,3.0993138352641836e-05
-5.889396197744645e-05,2.9931783501524478e-05,-2.8052712877979502e-05,2.569904063420836e-05
-5.5106080253608525e-05,3.433470556046814e-05,-2.9999931939528324e-05,2.0706223949673586e-05
-4.932700176141225e-05,3.549544635461643e-05,-2.747272083070129e-05,1.959494511538651e-05
-4.701142097474076e-05,4.113453906029463e-05,-2.372207927692216e-05,1.9986253391834907e-05
-4.789130616700277e-05,5.034861897001974e-05,-2.0030312953167595e-05,1.7197546185343526e-05
-4.8474015784449875e-05,4.906567119178362e-05,-1.931316000991501e-05,1.4731524061062373e-05
-5.2680719818454236e-05,4.067164263688028e-05,-2.135006434400566e-05,1.3878647223464213e-05
-5.569533459492959e-05,3.4014316042885184e-05,-2.3132077330956236e-05,1.6253787180176005e-05
-5.53807221876923e-05,3.480732630123384e-05,-2.4395616492256522e-05,2.134470923920162e-05
-5.000139935873449e-05,4.1752424294827506e-05,-2.2145832190290093e-05,2.4192335331463255e-05
-4.520370566751808e-05,4.6569493861170486e-05,-1.6329580830642954e-05,2.098933509842027e-05
-4.442757926881313e-05,4.2128434870392084e-05,-1.3168259101803415e-05,1.6208088709390722e-05
-4.676144089899026e-05,3.463061148067936e-05,-1.3297206351126079e-05,1.6095298633445054e-05
-5.083523501525633e-05,3.383978400961496e-05,-1.5476125554414466e-05,1.8300459487363696e-05
-5.388690624386072e-05,4.095342228538357e-05,-1.91388917301083e-05,2.013261655520182e-05
-5.602322562481277e-05,4.7027198888827115e-05,-2.139216667274013e-05,2.0804927771678194e-05
-5.830359805258922e-05,4.503100353758782e-05,-1.933946623466909e-05,2.052712625300046e-05
-5.829218207509257e-05,4.089556750841439e-05,-1.5110610547708347e-05,1.9867535229423083e-05
-5.332863293006085e-05,4.103615356143564e-05,-1.5977984730852768e-05,1.9599005099735223e-05
-4.774774060933851e-05,4.421755511430092e-05,-2.2354826796799898e-05,1.94319127331255e-05
-4.855968654737808e-05,4.777346839546226e-05,-2.747638791333884e-05,2.075900738418568e-05
-5.5450829677283764e-05,5.6373679399257526e-05,-2.878236773540266e-05,2.4982668037409894e-05
-5.9154146583750844e-05,6.798939284635708e-05,-2.7231859348830767e-05,2.638209844008088e-05
-5.7589531934354454e-05,7.810186070855707e-05,-2.4019478587433696e-05,2.643061088747345e-05
-5.974318628432229e-05,8.3926111983601e-05,-2.5235900466213934e-05,2.7837659217766486e-05
-6.071586540201679e-05,7.880604971433058e-05,-2.8045989893143997e-05,2.9039854780421592e-05
-5.459026215248741e-05,5.6293996749445796e-05,-2.8605021725525148e-05,3.21048210025765e-05
-4.475744572118856e-05,2.0600657080649398e-05,-2.5539047783240676e-05,3.416396793909371e-05
-3.555891817086376e-05,-1.0419046702736523e-05,-2.1712414309149608e-05,3.239261423004791e-05
-3.70570232917089e-05,-1.2172887181804981e-05,-2.1078034478705376e-05,3.099556124652736e-05
-4.6159122575772926e-05,7.12112387191155e-06,-2.354760727030225e-05,3.163447036058642e-05
-5.4623858886770904e-05,2.082070568576455e-05,-2.671310903679114e-05,3.371593265910633e-05
-5.318251714925282e-05,2.0296483853599057e-05,-2.8189617296447977e-05,3.300822208984755e-05
-5.109000267111696e-05,1.5568879462080076e-05,-2.776021938188933e-05,2.8813821700168774e-05
-5.14200291945599e-05,1.7205522453878075e-05,-2.7104031687485985e-05,2.623150976432953e-05
-4.916017860523425e-05,2.8464382921811193e-05,-2.8711281629512087e-05,2.6370993509772234e-05
-4.934041135129519e-05,4.36907030234579e-05,-3.0389886887860484e-05,2.794203464873135e-05
-5.3441992349689826e-05,5.128948396304622e-05,-3.121564441244118e-05,2.850350756489206e-05
-5.8235957112628967e-05,4.880446067545563e-05,-3.1101066269911826e-05,2.8849168302258477e-05
-5.929218605160713e-05,4.146694845985621e-05,-2.9732516850344837e-05,2.9196116884122603e-05
-6.10629576840438e-05,3.30974580720067e-05,-2.7277868866804056e-05,2.8567726985784248e-05
-6.21899453108199e-05,2.328406844753772e-05,-2.513093568268232e-05,2.7578538720263168e-05
-5.869097731192596e-05,1.7213473256560974e-05,-2.457905611663591e-05,2.981535544677172e-05
-5.323212826624513e-05,1.8098669897881337e-05,-2.3191931177279912e-05,3.519992242217995e-05
-4.987646025256254e-05,2.0243505787220784e-05,-2.0278277588658966e-05,3.705501148942858e-05
-4.502398587646894e-05,1.8699425709201023e-05,-1.910267019411549e-05,3.6302950320532545e-05
-4.165912832831964e-05,1.6653519196552224e-05,-1.941622031154111e-05,3.362237475812435e-05
-4.618997991201468e-05,1.976299063244369e-05,-2.0554949514917098e-05,2.7892616344615817e-05
-5.572344161919318e-05,2.6096484361914918e-05,-2.18909826799063e-05,2.422049510641955e-05
-5.764345405623317e-05,2.7100881197839044e-05,-2.2882928533363156e-05,2.3764741854392923e-05
-5.040783071308397e-05,2.254940045531839e-05,-2.7036059691454284e-05,2.3478833099943586e-05
-4.189364335616119e-05,1.964370494533796e-05,-3.231516893720254e-05,2.2274265575106256e-05
-3.904946424881928e-05,2.3668373614782467e-05,-3.306096186861396e-05,2.233751001767814e-05
-4.1684263123897836e-05,2.764619785011746e-05,-2.972003676404711e-05,2.1243984519969672e-05
-4.023665314889513e-05,2.8703463613055646e-05,-2.4650147679494694e-05,1.917888039315585e-05
-4.053597149322741e-05,2.6645751859177835e-05,-2.0984900402254425e-05,1.7942957128980197e-05
-4.4183561840327457e-05,1.963179420272354e-05,-2.2127838747110218e-05,1.7721271433401853e-05
-4.4560660171555355e-05,1.6482636056025513e-05,-2.681899059098214e-05,1.8367220036452636e-05
-4.180554606136866e-05,2.1350795577745885e-05,-2.9052895115455613e-05,1.7487380318925716e-05
-3.741829641512595e-05,3.270591332693584e-05,-3.1241517717717215e-05,1.905535646073986e-05
-3.7298155803000554e-05,4.740799340652302e-05,-3.524134081089869e-05,2.10628622880904e-05
-4.0101836930261925e-05,5.328691258910112e-05,-3.713076512212865e-05,2.0710192984552123e-05
-4.475532114156522e-05,4.70422746730037e-05,-3.675291009130888e-05,1.791140493878629e-05
-4.9650425353320315e-05,4.069599890499376e-05,-3.447482959018089e-05,1.6088757547549903e-05
-5.117675391375087e-05,3.960587491746992e-05,-3.2942192774498835e-05,1.5479332432732917e-05
-5.1035021897405386e-05,3.756639125640504e-05,-3.313854176667519e-05,1.5222717593132984e-05
-5.075061199022457e-05,3.2391872082371265e-05,-3.4046013752231374e-05,1.506461740063969e-05
-4.8572423111181706e-05,2.8250211471458897e-05,-3.424107126193121e-05,1.5429806808242574e-05
-4.484022065298632e-05,2.6997235181625e-05,-3.364981967024505e-05,1.8486294720787555e-05
-4.083305975655094e-05,2.9511484171962366e-05,-3.135865699732676e-05,2.0604200472007506e-05
-3.522910992614925e-05,3.3222870115423575e-05,-2.8937849492649548e-05,1.9595147023210302e-05
-3.1892086553853005e-05,3.344890137668699e-05,-2.981639772769995e-05,1.8639602785697207e-05
-3.3700463973218575e-05,3.106872827629559e-05,-3.1009600206743926e-05,2.0370454876683652e-05
-3.587928586057387e-05,3.063004987780005e-05,-2.894395038310904e-05,2.3504419004893862e-05
-3.305891732452437e-05,3.660354559542611e-05,-2.252836748084519e-05,2.530440360715147e-05
-3.2313801057171077e-05,4.517489287536591e-05,-1.57761915033916e-05,2.4813632990117185e-05
-3.6494628147920594e-05,5.001004319638014e-05,-1.4006340279593132e-05,2.3147036699810997e-05
-3.920790913980454e-05,4.7988167352741584e-05,-1.6221378245973028e-05,2.002263681788463e-05
-3.839773125946522e-05,3.80504789063707e-05,-1.7571675925864838e-05,2.086487802444026e-05
-3.988532262155786e-05,2.5668970920378342e-05,-2.0238221623003483e-05,2.3403947125189006e-05
-4.144861668464728e-05,1.9382712707738392e-05,-2.4885657694539987e-05,2.0535413568723015e-05
-3.899859439115971e-05,2.2103404262452386e-05,-2.3150789274950512e-05,1.6935337043832988e-05
-3.9229096728377044e-05,2.3640977815375663e-05,-1.982222056540195e-05,1.6104528185678646e-05
-4.32542510679923e-05,1.844981306931004e-05,-2.1224965166766196e-05,1.660067937336862e-05
-4.802604962605983e-05,1.3754495739703998e-05,-2.6885678380494937e-05,2.0158959159743972e-05
-5.200249870540574e-05,1.5688350686104968e-05,-3.2390948035754263e-05,2.3942622647155076e-05
-5.714695362257771e-05,1.815853829612024e-05,-3.22545129165519e-05,2.6598634576657787e-05
-6.071402094676159e-05,2.0859881260548718e-05,-2.9261718736961484e-05,2.537308682803996e-05
-5.863616752321832e-05,2.6468385840416886e-05,-2.584539288363885e-05,2.3258960936800577e-05
-5.724760558223352e-05,3.76668649550993e-05,-2.4843538994900882e-05,2.364078682148829e-05
-5.537633114727214e-05,4.842797716264613e-05,-2.5041106709977612e-05,2.3263530238182284e-05
-4.963645915267989e-05,5.1496819651219994e-05,-2.2896798327565193e-05,2.1091822418384254e-05
-4.300717046135105e-05,4.7794714191695675e-05,-1.9332626834511757e-05,2.0757517631864175e-05
-4.141364843235351e-05,4.2541669245110825e-05,-1.8990655007655732e-05,2.487675919837784e-05
-4.530863225227222e-05,3.843839658657089e-05,-2.3373500880552456e-05,2.8327347536105663e-05
-4.611401163856499e-05,3.2511845347471535e-05,-2.8620603188755922e-05,2.8968077458557673e-05
-4.1684837924549356e-05,3.0217783205443993e-05,-3.158402978442609e-05,2.8249123715795577e-05
-3.779209509957582e-05,3.6859928513877094e-05,-3.146547169308178e-05,2.6487285140319727e-05
-3.8172111089807004e-05,4.80023845739197e-05,-3.009062129422091e-05,2.3435373805114068e-05
-3.905145058524795e-05,5.014105045120232e-05,-2.91721080429852e-05,2.132199915649835e-05
-3.892332824761979e-05,4.334006371209398e-05,-2.7987252906314097e-05,2.093675357173197e-05
-4.1708295611897483e-05,3.70339366781991e-05,-2.8075946829630993e-05,2.1020721760578454e-05
-4.586475915857591e-05,3.820830170297995e-05,-3.0030349080334418e-05,2.1328558432287537e-05
-4.614853605744429e-05,4.228184116072953e-05,-3.183120134053752e-05,2.4067807316896506e-05
-4.372973489807919e-05,4.142733450862579e-05,-3.24842294503469e-05,2.744712219282519e-05
-4.5439093810273334e-05,3.805558299063705e-05,-3.1071271223481745e-05,2.696359842957463e-05
-4.6743294660700485e-05,3.581870623747818e-05,-2.7853377105202526e-05,2.442948243697174e-05
-4.763909964822233e-05,2.7921823857468553e-05,-2.614475852169562e-05,2.4835619115037844e-05
-5.363556556403637e-05,1.4495428331429139e-05,-2.812613092828542e-05,2.4581044272053987e-05
-5.943774522165768e-05,9.760501598066185e-07,-2.973129812744446e-05,2.2923208234715275e-05
-6.605812814086676e-05,-8.004007213457953e-06,-2.86290051008109e-05,2.2360518414643593e-05
-6.630389543715864e-05,-6.8771419137192424e-06,-2.854950253095012e-05,2.586458322184626e-05
-6.06367175350897e-05,4.656562396121444e-06,-2.5889234166243114e-05,2.9923543479526415e-05
-6.182696233736351e-05,1.8811268091667444e-05,-1.9287990653538145e-05,3.129915057797916e-05
-6.736389332218096e-05,2.352041883568745e-05,-1.7087508240365423e-05,2.938891338999383e-05
-6.8918991019018e-05,1.7255795683013275e-05,-1.9835402781609446e-05,2.573137498984579e-05
-6.720019882777706e-05,9.423166375199798e-06,-2.2483856810140423e-05,2.5126089894911274e-05
-6.250123988138512e-05,1.0701461178541649e-05,-2.2248230379773304e-05,2.3252436221810058e-05
-5.649550803354941e-05,2.13119183172239e-05,-2.2492977223009802e-05,1.8265625840285793e-05
-5.385704571381211e-05,3.712442412506789e-05,-2.314858284080401e-05,1.597871414560359e-05
-5.640538074658252e-05,4.8948244511848316e-05,-2.219917041657027e-05,1.768293441273272e-05
-6.0418191424105316e-05,4.771991734742187e-05,-2.0856356059084646e-05,1.9452974811429158e-05
-6.040333028067835e-05,3.8205482269404456e-05,-2.217103792645503e-05,2.2745871319784783e-05
-5.6362710893154144e-05,3.367706813151017e-05,-2.4638728064019233e-05,2.592756754893344e-05
-5.353970846044831e-05,3.5496406781021506e-05,-2.3448670617653988e-05,2.622244937811047e-05
-5.378708738135174e-05,3.680005102069117e-05,-2.03755062102573e-05,2.5009345336002298e-05
-5.287998646963388e-05,3.7187961424933746e-05,-2.0291829059715383e-05,2.462145857862197e-05
-5.244505882728845e-05,3.7323508877307177e-05,-2.4666000172146596e-05,2.4591457986389287e-05
-5.4908206948312e-05,3.731991819222458e-05,-3.1514253350906074e-05,2.3968457753653638e-05
-6.18312114966102e-05,3.782334897550754e-05,-3.754621866391972e-05,2.414905247860588e-05
-7.266729517141357e-05,3.7262405385263264e-05,-3.8907950511202216e-05,2.699265314731747e-05
-8.00509296823293e-05,3.626591569627635e-05,-3.4890272218035534e-05,2.7822341507999226e-05
-7.914021261967719e-05,3.5936751373810694e-05,-2.7756079362006858e-05,2.5088047550525516e-05
-7.207039016066119e-05,3.6477496905718e-05,-2.2406027710530907e-05,2.1476462279679254e-05
-5.851525202160701e-05,3.9454145735362545e-05,-2.4429171389783733e-05,1.8932267266791314e-05
-4.830128455068916e-05,4.236922177369706e-05,-2.7827854864881374e-05,1.5849289411562495e-05
-4.669202826335095e-05,4.1132880141958594e-05,-2.616909478092566e-05,1.2450128451746423e-05
-5.160172440810129e-05,3.8446956750703976e-05,-2.530360325181391e-05,1.3573902833741158e-05
-5.436148421722464e-05,3.836227915599011e-05,-2.6344985599280335e-05,1.705814793240279e-05
-4.83038165839389e-05,3.9579859731020406e-05,-2.9430395443341695e-05,2.1420086341095157e-05
-4.005569644505158e-05,4.0817063563736156e-05,-3.0264631277532317e-05,2.490090628270991e-05
-3.600520358304493e-05,4.2759915231727064e-05,-2.729135303525254e-05,2.264207614643965e-05
-3.728101000888273e-05,4.2358773498563096e-05,-2.2751706637791358e-05,1.8309896404389292e-05
-4.181082113063894e-05,3.845094397547655e-05,-1.8151769836549647e-05,1.9024522771360353e-05
-4.556576823233627e-05,3.8625661545665935e-05,-1.6488445908180438e-05,2.3373591830022633e-05
-4.225809971103445e-05,4.5973552914801985e-05,-1.9443512428551912e-05,2.848891199391801e-05
-3.7161094951443374e-05,5.580975630437024e-05,-2.556510480644647e-05,3.1891748221823946e-05
-3.391355130588636e-05,6.111240509198979e-05,-2.9200820790720172e-05,3.241440572310239e-05
-3.50065492966678e-05,5.239110760157928e-05,-2.699828655750025e-05,3.0230003176257014e-05
-3.938205190934241e-05,3.024113357241731e-05,-2.1724092221120372e-05,2.6230143703287467e-05
-4.3800464482046664e-05,1.0468181244505104e-05,-2.2211090254131705e-05,2.182446769438684e-05
-4.332258686190471e-05,5.222259005677188e-06,-2.7042186047765426e-05,2.2709409677190706e-05
-3.926991485059261e-05,1.1893424016307108e-05,-2.890146970457863e-05,2.742534525168594e-05
-3.7230554880807176e-05,1.977984356926754e-05,-2.5644258130341768e-05,2.7207328457734548e-05
-3.596251553972252e-05,2.056157245533541e-05,-2.2211386749404483e-05,2.067336936306674e-05
-3.633473897934891e-05,1.773711665009614e-05,-2.0711349861812778e-05,1.55542711581802e-05
-4.046281173941679e-05,2.023843990173191e-05,-1.9290842828922905e-05,1.4402636224986054e-05
-4.277156403986737e-05,2.6551771952654235e-05,-1.813165181374643e-05,1.3116103218635544e-05
-3.930661841877736e-05,3.055770503124222e-05,-1.9491366401780397e-05,1.3198565284255892e-05
-3.551712507032789e-05,3.303402627352625e-05,-2.0695470084319822e-05,1.4874059161229525e-05
-3.817033575614914e-05,3.45547086908482e-05,-2.0584464436979033e-05,1.5876370525802486e-05
-4.4852422433905303e-05,3.127695163129829e-05,-2.4042468794505112e-05,1.6803780454210937e-05
-4.7609479224774987e-05,2.6890533263213e-05,-2.7163547201780602e-05,1.7866776033770293e-05
-4.916240504826419e-05,2.394394869043026e-05,-2.582172783149872e-05,1.7176016626763158e-05
-4.887081740889698e-05,2.018691520788707e-05,-2.2940188500797376e-05,1.8117854779120535e-05
-4.790462480741553e-05,1.963133763638325e-05,-2.3432978196069598e-05,1.8567106963018887e-05
-4.966814231011085e-05,2.168646824429743e-05,-2.438350384181831e-05,1.5688683561165817e-05
-5.471443000715226e-05,2.4490178475389257e-05,-2.5305431336164474e-05,1.3203787602833472e-05
-5.8513433032203466e-05,2.6014338800450787e-05,-2.617231621115934e-05,1.1789697055064607e-05
-5.556336327572353e-05,2.306327223777771e-05,-2.685736217244994e-05,1.0594822924758773e-05
-5.0700884457910433e-05,2.1411366105894558e-05,-2.7473326554172672e-05,1.371261623717146e-05
-5.316643728292547e-05,2.6878986318479292e-05,-2.4693012164789252e-05,2.0812203729292378e-05
-5.837562639499083e-05,3.4435492125339806e-05,-2.061155464616604e-05,2.6452704332768917e-05
-5.975901149213314e-05,3.957093576900661e-05,-1.7524525901535526e-05,2.7018013497581705e-05
-5.8076082495972514e-05,4.354877455625683e-05,-1.760457962518558e-05,2.468268030497711e-05
-5.505302033270709e-05,4.523529059952125e-05,-2.1092699171276763e-05,2.4048847990343347e-05
-5.28556811332237e-05,4.1087983845500275e-05,-2.630947346915491e-05,2.5818997528403997e-05
-5.116458123666234e-05,3.479458609945141e-05,-2.9108206945238635e-05,2.9102024200255983e-05
-4.8953512305160984e-05,3.233407187508419e-05,-2.70124182861764e-05,3.2116797228809446e-05
-4.7159745008684695e-05,3.3357668144162744e-05,-2.360997677897103e-05,3.312893022666685e-05
-5.171724478714168e-05,3.3771579182939604e-05,-2.1865545932087116e-05,3.2398940675193444e-05
-5.941679410170764e-05,3.10001487378031e-05,-2.1476053007063456e-05,3.131921766907908e-05
-6.122344348113984e-05,2.67645427811658e-05,-2.2273768990999088e-05,2.8071301130694337e-05
-5.9079055063193664e-05,2.62919238593895e-05,-2.4402308554272167e-05,2.4648295948281884e-05
-5.8224311942467466e-05,3.124017166555859e-05,-2.5806653866311535e-05,2.632350879139267e-05
-5.6537348427809775e-05,3.4839486033888534e-05,-2.468098682584241e-05,3.179031045874581e-05
-5.503410648088902e-05,3.1853847758611664e-05,-2.5596276827855036e-05,3.5098371881758794e-05
-5.966186654404737e-05,2.7812689950224012e-05,-2.951603164547123e-05,3.594868758227676e-05
-6.494716217275709e-05,2.126276922354009e-05,-3.349534381413832e-05,3.4515200241003186e-05
-6.670247967122123e-05,1.4622877642977983e-05,-3.3581640309421346e-05,3.0079994758125395e-05
-6.965538341319188e-05,1.5417781469295733e-05,-3.17073063342832e-05,2.628454240038991e-05
-7.36870351829566e-05,1.7084246792364866e-05,-2.9658249331987463e-05,2.5843552066362463e-05
-7.281927537405863e-05,2.2236448785406537e-05,-2.4617582312203012e-05,2.5390905648237094e-05
-6.029641008353792e-05,2.6782108761835843e-05,-2.2084916054154746e-05,2.5560910216881894e-05
-4.243429430061951e-05,2.914750439231284e-05,-2.550606404838618e-05,2.7225598387303762e-05
-2.8946924430783838e-05,3.3634853025432676e-05,-2.817774293362163e-05,2.7073010642197914e-05
-2.6272588002029806e-05,3.912377724191174e-05,-2.610818228276912e-05,2.396276431682054e-05
-3.2016414479585364e-05,4.281923975213431e-05,-2.4692981241969392e-05,2.1881849534111097e-05
-3.771171759581193e-05,4.548353172140196e-05,-2.464487261022441e-05,2.5637807993916795e-05
-3.8782724004704505e-05,4.994977280148305e-05,-2.5346820621052757e-05,3.131527410005219e-05
-4.1987845179392025e-05,5.640346716972999e-05,-2.5388473659404553e-05,3.2669646316207945e-05
-5.0220434786751866e-05,6.161347846500576e-05,-2.5407825887668878e-05,2.9496022762032226e-05
-5.629540464724414e-05,5.9904912632191554e-05,-2.653874980751425e-05,2.4549914087401703e-05
-5.624401455861516e-05,5.026609142078087e-05,-2.7537185815162957e-05,2.0286166545702145e-05
-5.115336171002127e-05,3.7185436667641625e-05,-2.934114309027791e-05,1.7967993699130602e-05
-4.716974581242539e-05,3.0102253731456585e-05,-3.2699106668587774e-05,1.644436997594312e-05
-4.6524826757377014e-05,2.9102378903189674e-05,-3.5704055335372686e-05,1.522821003163699e-05
-4.598190571414307e-05,2.8034795832354575e-05,-3.717421350302175e-05,1.386733947583707e-05
-4.0858169086277485e-05,2.2759235434932634e-05,-3.7468751543201506e-05,1.1611563422775362e-05
-3.729613672476262e-05,1.7882161046145484e-05,-3.7860383599763736e-05,1.01108817034401e-05
-4.1286151827080175e-05,1.7863343600765802e-05,-3.817701872321777e-05,1.0982218555000145e-05
-4.6898305299691856e-05,2.3606309696333483e-05,-3.661857408587821e-05,1.5011955838417634e-05
-4.8678724851924926e-05,2.7916910767089576e-05,-3.2936728530330583e-05,1.9331984731252305e-05
-4.836704829358496e-05,2.7822889023809694e-05,-2.756490357569419e-05,2.271326957270503e-05
-4.8600933951092884e-05,3.133720383630134e-05,-2.4288043277920224e-05,2.526351818232797e-05
-4.791419632965699e-05,3.817191463895142e-05,-2.351769398956094e-05,2.704754297155887e-05
-4.7762190661160275e-05,4.172655462753028e-05,-1.9784196410910226e-05,2.6509207600611262e-05
-4.971716771251522e-05,4.245402669766918e-05,-1.1420576811360661e-05,2.3128128304961137e-05
-5.2011841034982353e-05,4.0752154745860025e-05,-5.630760369967902e-06,2.1665746317012236e-05
-5.406461423262954e-05,3.9665348595008254e-05,-7.225874014693545e-06,1.9337550838827156e-05
-5.367965059122071e-05,4.286072726245038e-05,-7.5825059866474476e-06,2.0988600226701237e-05
-4.865646405960433e-05,4.659473052015528e-05,-1.8777036814299208e-07,2.6038775104098022e-05
-4.280797656974755e-05,4.7348818043246865e-05,6.8847921284032054e-06,3.0149392841849476e-05
-4.1375216824235395e-05,3.940154783776961e-05,9.894053619063925e-06,3.454948455328122e-05
-4.1591858462197706e-05,2.5468620151514187e-05,9.321011930296663e-06,3.808872133959085e-05
-4.5080734707880765e-05,1.5774900020915084e-05,3.7435713693412254e-06,3.9312468288699165e-05
-4.9009664508048445e-05,1.7132084394688718e-05,-8.718273420527112e-06,3.811616261373274e-05
-4.700030694948509e-05,2.3240665541379713e-05,-3.0424507713178173e-05,3.6521319998428226e-05
-4.007235838798806e-05,2.2216534489416517e-05,-6.16759352851659e-05,3.4633485483936965e-05
-3.33782663801685e-05,1.2703806532954331e-05,-9.504824265604839e-05,3.22284504363779e-05
-3.0430115657509305e-05,3.7853553749300772e-06,-0.0001176253572339192,3.049217957595829e-05
-3.3525775506859645e-05,1.4476411251962418e-06,-0.00011991607607342303,2.9957715014461428e-05
-4.175637513981201e-05,8.360036076737742e-07,-0.00010478882904862985,2.9129952963558026e-05
-4.617179001797922e-05,-2.7606270123214927e-06,-8.17870459286496e-05,2.6114428692380898e-05
-4.508253186941147e-05,-2.4712301183171803e-06,-5.076438174000941e-05,2.049416616500821e-05
-4.445457670954056e-05,7.169477157731308e-06,-1.1997582987532951e-05,1.5948508007568307e-05
-4.525402619037777e-05,2.1216752429609187e-05,2.1114527044119313e-05,1.0035611921921372e-05
-4.933738091494888e-05,3.8242622395046055e-05,3.917521462426521e-05,4.972090664523421e-06
-5.432532634586096e-05,5.545739986700937e-05,3.97833100578282e-05,3.928395926777739e-06
-5.645067722070962e-05,6.414680683519691e-05,2.4840215701260604e-05,5.740198957937537e-06
-5.7592282246332616e-05,6.534666317747906e-05,6.438789114326937e-06,1.0039435437647626e-05
-5.639070877805352e-05,6.210771243786439e-05,-6.492817192338407e-06,1.3020897313253954e-05
-5.5011798394843936e-05,5.782620428362861e-05,-1.1677731890813448e-05,1.3703167496714741e-05
-5.2946274081477895e-05,5.6461169151589274e-05,-1.3570050214184448e-05,1.5387957319035195e-05
-5.314733789418824e-05,4.89681915496476e-05,-1.4831792213954031e-05,1.774479642335791e-05
-6.011031655361876e-05,3.6284563975641504e-05,-1.469569542678073e-05,2.0397907064761966e-05
-6.751690671080723e-05,2.8702168492600322e-05,-1.1278804777248297e-05,2.4614690119051374e-05
-6.340716208796948e-05,2.6448205971973948e-05,-5.5975506256800145e-06,2.8714888685499318e-05
-5.432434409158304e-05,2.019508247030899e-05,-1.363430783385411e-06,3.2950949389487505e-05
-5.067226811661385e-05,9.067123755812645e-06,-6.98687972544576e-06,3.5152148484485224e-05
-4.902840009890497e-05,-3.1367189876618795e-06,-2.3975166186573915e-05,3.302856566733681e-05
-4.684309533331543e-05,-9.365668120153714e-06,-4.532160528469831e-05,3.2430023566121235e-05
-4.327127317083068e-05,-4.784585144079756e-06,-6.33575618849136e-05,3.806392487604171e-05
-3.960013418691233e-05,8.563129995309282e-06,-7.344647747231647e-05,4.446140519576147e-05
-4.0419989090878516e-05,2.8100796043872833e-05,-7.893177098594606e-05,4.375382195576094e-05
-4.135651761316694e-05,4.373759657028131e-05,-7.749516953481361e-05,3.916449713869952e-05
-3.827246473520063e-05,4.9976624723058194e-05,-6.36069817119278e-05,3.782509156735614e-05
-3.8077640056144446e-05,5.018846786697395e-05,-3.794615258811973e-05,3.8505324482684955e-05
-4.392229675431736e-05,5.028486702940427e-05,-1.3146363926352933e-05,3.5484998079482466e-05
-4.9318186938762665e-05,5.0137612561229616e-05,-6.257109248508641e-07,3.0417399102589116e-05
-5.0166887376690283e-05,4.8911093472270295e-05,8.110320663945458e-07,2.5878964152070694e-05
-4.982528480468318e-05,4.7346915380330756e-05,-1.1060974429710768e-06,1.789819543773774e-05
-4.954595351591706e-05,4.505984179559164e-05,-5.106884600536432e-06,8.452881047560368e-06
-4.762163734994829e-05,4.32927772635594e-05,-7.721336260146927e-06,4.3267350520181935e-06
-4.422375786816701e-05,4.723164238384925e-05,-9.387345926370472e-06,7.753053978376556e-06
-4.4505610276246443e-05,5.395814878284e-05,-1.5619107216480188e-05,1.5772062397445552e-05
-4.547787466435693e-05,5.478695311467163e-05,-2.0207802663207985e-05,2.1561358153121546e-05
-4.6124259824864566e-05,5.061590127297677e-05,-2.5393354007974267e-05,2.11019523703726e-05
-4.8790545406518504e-05,4.9261008825851604e-05,-3.4604152460815385e-05,2.143432357115671e-05
-5.279917240841314e-05,4.749439540319145e-05,-3.137897147098556e-05,2.5458841264480725e-05
-5.47648269275669e-05,4.5326461986405775e-05,-7.5303619269107e-06,2.8965061574126594e-05
-4.9227423005504534e-05,4.620622712536715e-05,1.3890296941099223e-05,3.357962123118341e-05
-4.198345777695067e-05,4.435748269315809e-05,1.535625233373139e-05,3.634359745774418e-05
-4.1435148887103423e-05,4.24955906055402e-05,1.1242402706557186e-06,3.416012987145223e-05
-4.5287059037946165e-05,4.125489795114845e-05,-2.040765502897557e-05,2.7934307581745088e-05
-5.1473762141540647e-05,4.1733594116522e-05,-4.1888146370183676e-05,2.069101537927054e-05
-5.634844274027273e-05,4.7113062464632094e-05,-6.087636575102806e-05,1.7783144357963465e-05
-5.6361222959822044e-05,5.133142985869199e-05,-7.503022789023817e-05,1.6323605450452305e-05
-5.392991442931816e-05,5.0364578783046454e-05,-8.836814959067851e-05,1.2471494301280472e-05
-5.313470319379121e-05,4.656855162465945e-05,-8.704383799340576e-05,6.0929000937903766e-06
-5.4295334848575294e-05,4.28838720836211e-05,-5.647534635500051e-05,-9.324057970161448e-08
-5.372223677113652e-05,4.199887553113513e-05,-1.9914104996132664e-05,-1.773698841134319e-06
-5.4201689636101946e-05,4.5077096729073673e-05,-4.273164449841715e-06,1.928971641973476e-06
-5.500545375980437e-05,4.597208680934273e-05,-4.860511126025813e-06,8.944554792833515e-06
-5.2751020120922476e-05,3.981696499977261e-05,-1.359515181320603e-06,1.580144089530222e-05
-4.954625910613686e-05,3.145748269162141e-05,4.096038992429385e-06,1.7711719920043834e-05
-4.845512012252584e-05,2.6680098017095588e-05,-2.667586613824824e-07,1.4851828382234089e-05
-4.9328620661981404e-05,2.330617280676961e-05,-1.553145375510212e-05,1.3180170753912535e-05
-5.284165672492236e-05,1.8003807781497017e-05,-3.93976442865096e-05,1.5219573469948955e-05
-5.871360554010607e-05,1.2097235412511509e-05,-6.645866233156994e-05,1.8635693777468987e-05
-6.030145596014336e-05,6.866823241580278e-06,-8.817581692710519e-05,2.0697651052614674e-05
-5.658948794007301e-05,7.692508916079532e-06,-0.0001026281388476491,2.1773166736238636e-05
-5.3690422646468505e-05,1.266447452508146e-05,-0.00010322372691007331,2.2467746020993218e-05
-5.243895429885015e-05,1.4206894775270484e-05,-8.160505967680365e-05,2.193089858337771e-05
-5.23034468642436e-05,1.0882548849622253e-05,-4.7254114178940654e-05,2.2658541638520546e-05
-5.3291059884941205e-05,1.1155706488352735e-05,-1.2841426723753102e-05,2.0963889255654067e-05
-5.565578248933889e-05,1.805127612897195e-05,8.86172983882716e-06,1.7022719475789927e-05
-6.0033315094187856e-05,2.184405457228422e-05,1.67630296346033e-05,1.1133365660498384e-05
-6.409396883100271e-05,2.063514148176182e-05,1.8923796233139e-05,-3.7242332950881973e-07
-6.836408283561468e-05,1.873064502433408e-05,1.1217301107535604e-05,-1.60043182404479e-05
-7.536530756624416e-05,1.987813266168814e-05,-2.6420748326927423e-06,-3.44156360370107e-05
-7.925904355943203e-05,2.3750593754812144e-05,-1.6283674995065667e-05,-4.480741699808277e-05
-7.277976692421362e-05,2.7470716304378584e-05,-2.5545956304995343e-05,-4.0221599192591384e-05
-5.885527207283303e-05,2.5752322471817024e-05,-3.020490476046689e-05,-2.237069929833524e-05
-4.294400059734471e-05,1.899057679111138e-05,-2.697679701668676e-05,6.548504643433262e-06
-3.0236687962315045e-05,1.716811311780475e-05,-2.253165075671859e-05,3.900386218447238e-05
-2.2391102902474813e-05,2.6395227905595675e-05,-1.991119461308699e-05,6.500994641100988e-05
-1.799997153284494e-05,3.945892967749387e-05,-1.459623126720544e-05,7.709269266342744e-05
-1.6466199667775072e-05,4.6446530177490786e-05,-7.803355401847512e-06,7.427937089232728e-05
-1.8646127500687726e-05,4.583359623211436e-05,-2.4242347080871696e-06,6.848009070381522e-05
-2.4299986762343906e-05,3.86013271054253e-05,-7.479614083649722e-08,6.894360558362678e-05
-2.9360151529544964e-05,3.1421212042914703e-05,7.063159500830807e-06,7.366397039731964e-05
-3.228239802410826e-05,3.145205482724123e-05,1.9192482795915566e-05,7.364595512626693e-05
-3.490308517939411e-05,3.5204768209951e-05,2.741617754509207e-05,6.41066872049123e-05
-3.680297959363088e-05,3.4752196370391175e-05,2.062650310108438e-05,5.198662984184921e-05
-3.855353133985773e-05,3.0478362532448955e-05,-5.93539482451888e-07,4.788353544427082e-05
-4.135430572205223e-05,2.3014246835373342e-05,-2.5504723453195766e-05,4.923489177599549e-05
-4.6368924813577905e-05,1.199102644022787e-05,-4.020667256554589e-05,4.786495992448181e-05
-5.1207483920734376e-05,2.5141275727946777e-06,-4.791586979990825e-05,4.391503898659721e-05
-5.0619684770936146e-05,2.126417030012817e-06,-6.127046071924269e-05,4.40160911239218e-05
-4.581302709993906e-05,8.09077300800709e-06,-7.922900840640068e-05,4.661941056838259e-05
-4.42807431682013e-05,1.7075552023015916e-05,-8.67125709191896e-05,4.358536170911975e-05
-5.040654286858626e-05,2.8495082005974837e-05,-8.536887617083266e-05,3.616936373873614e-05
-5.43263740837574e-05,4.087547858944163e-05,-8.463439007755369e-05,3.115605431958102e-05
-5.616415000986308e-05,5.2134877478238195e-05,-8.803721721051261e-05,2.9280992748681456e-05
-5.8832702052313834e-05,5.237482037045993e-05,-8.84072869666852e-05,2.4032040528254583e-05
-5.928028258495033e-05,4.7876037569949403e-05,-7.682112482143566e-05,2.1530537196667865e-05
-6.322989793261513e-05,4.765060293721035e-05,-4.798897134605795e-05,1.7864935216493905e-05
-6.735841452609748e-05,4.811413964489475e-05,-7.583817478007404e-06,1.3414450222626328e-05
-6.74408147460781e-05,4.5792585297022015e-05,2.1894920791964978e-05,1.1630262633843813e-05
-6.33008312433958e-05,4.2513132939348e-05,2.3223708922159858e-05,1.1951445230806712e-05
-5.6276909162988886e-05,3.8376005250029266e-05,-2.2872802674100967e-06,1.257449639524566e-05
-5.082067582407035e-05,3.41284649039153e-05,-3.385210584383458e-05,1.134136527980445e-05
-4.9271729949396104e-05,3.004332938871812e-05,-5.93494187342003e-05,1.1911653018614743e-05
-5.042027623858303e-05,2.4395772925345227e-05,-6.873075471958145e-05,1.3740600479650311e-05
-5.093097934150137e-05,1.957244603545405e-05,-6.187558028614148e-05,1.5108721527212765e-05
-5.250245885690674e-05,1.562678335176315e-05,-4.384755084174685e-05,1.3239217878435738e-05
-5.360257637221366e-05,9.87157727649901e-06,-2.597142884042114e-05,1.3398063856584486e-05
-5.334431989467703e-05,1.9324413642607396e-06,-2.048054193437565e-05,1.7447224308853038e-05
-5.363670425140299e-05,5.225144832365913e-07,-2.8833143005613238e-05,2.219057932961732e-05
-5.261854676064104e-05,1.313943175773602e-05,-3.4352069633314386e-05,2.3419459466822445e-05
-4.8933248763205484e-05,3.187417678418569e-05,-1.9532692022039555e-05,1.854850779636763e-05
-4.747963248519227e-05,4.426306622917764e-05,5.615804639091948e-06,6.666705758107128e-06
-5.412869722931646e-05,5.0109894800698385e-05,1.832150883274153e-05,-7.89868863648735e-06
-6.525561911985278e-05,5.4931653721723706e-05,1.3659876458405051e-05,-1.861997770902235e-05
-7.234531221911311e-05,6.15226017544046e-05,2.322177124369773e-06,-2.157531343982555e-05
-6.876388215459883e-05,6.532180850626901e-05,2.956565367639996e-06,-1.9777926354436204e-05
-5.81522035645321e-05,6.187808321556076e-05,4.70691011287272e-05,-1.669697667239234e-05
-5.2700648666359484e-05,5.9498379414435476e-05,0.00012551617692224681,-5.306262664817041e-06
-5.6734428653726354e-05,5.8815865486394614e-05,0.0001971273304661736,1.6903713913052343e-05
-6.902568566147238e-05,5.227160363574512e-05,0.00021508497593458742,3.480304076219909e-05
-8.278047607745975e-05,4.658451143768616e-05,0.00016702190623618662,4.0827610064297915e-05
-8.53783858474344e-05,4.282584268366918e-05,6.608782132389024e-05,4.1580027755117044e-05
-8.452264592051506e-05,4.117809658055194e-05,-7.024243677733466e-05,3.9661968912696466e-05
-8.807561971480027e-05,4.219058610033244e-05,-0.0002068951289402321,3.943717820220627e-05
-8.18357802927494e-05,3.684256080305204e-05,-0.00030232316930778325,4.6436249249381945e-05
-6.134554132586345e-05,2.7433914510766044e-05,-0.00029617297695949674,5.6137672800105065e-05
-4.083284147782251e-05,2.1158937670406885e-05,-0.00019083773076999933,6.000477878842503e-05
-2.7940981453866698e-05,1.655187224969268e-05,-6.29020287306048e-05,5.710652840207331e-05
-2.3113885617931373e-05,6.347896942315856e-06,1.7099955584853888e-05,4.9001831939676777e-05
-2.4335060516023077e-05,-5.675421562045813e-06,4.00726858060807e-05,3.767330781556666e-05
-2.5092042051255703e-05,-1.163180513685802e-05,2.630801100167446e-05,2.7712421797332354e-05
-2.5682134946691804e-05,-1.641609014768619e-05,-1.3064423001196701e-06,1.810390858736355e-05
-2.7387621230445802e-05,-2.2748292394680902e-05,-2.572931771283038e-05,9.45310512179276e-06
-3.09652641590219e-05,-2.2457166778622195e-05,-4.193657514406368e-05,5.456166036310606e-06
-3.8968744775047526e-05,-8.89260718395235e-06,-4.798558438778855e-05,6.226579444046365e-06
-5.16096806677524e-05,1.2185297237010673e-05,-4.911197902401909e-05,1.317324313276913e-05
-5.800392318633385e-05,3.0049362976569682e-05,-4.900502972304821e-05,2.345404755033087e-05
-5.4354139138013124e-05,3.91405847040005e-05,-4.713590897154063e-05,3.1288589525502175e-05
-5.224636333878152e-05,3.8987094740150496e-05,-3.8258498534560204e-05,3.43122701451648e-05
-5.174132456886582e-05,3.143890353385359e-05,-2.791045517369639e-05,3.474071127129719e-05
-4.515841283136979e-05,2.3465796402888373e-05,-2.1559855667874217e-05,3.322783231851645e-05
-4.1711133235367015e-05,2.655739626789e-05,-1.991966928471811e-05,2.88326627924107e-05
-4.662543869926594e-05,3.670023215818219e-05,-1.7107055100495927e-05,2.269743890792597e-05
-4.669261397793889e-05,4.082108353031799e-05,-1.5272371456376277e-05,1.5712721506133676e-05
-4.2272200516890734e-05,4.231601269566454e-05,-1.62132073455723e-05,1.3657115232490469e-05
-3.997358726337552e-05,4.9796683015301824e-05,-1.836942828958854e-05,1.9636290744529106e-05
-3.882077362504788e-05,5.6977201893460006e-05,-2.3802560463082045e-05,2.8875036150566302e-05
-4.219459879095666e-05,5.5931897804839537e-05,-2.867076727852691e-05,3.36281445925124e-05
-4.798139343620278e-05,4.639617327484302e-05,-3.156579623464495e-05,3.0991999665275216e-05
-4.91717983095441e-05,3.536014264682308e-05,-3.811933129327372e-05,2.877586302929558e-05
-4.962282764608972e-05,3.1362316804006696e-05,-4.173596971668303e-05,2.8774024031008594e-05
-4.990639354218729e-05,3.158761319355108e-05,-3.980447581852786e-05,2.8920694603584707e-05
-4.705249011749402e-05,3.191987343598157e-05,-3.502131949062459e-05,2.7950938601861708e-05
-4.0221286326413974e-05,3.1672290788264945e-05,-3.348133759573102e-05,2.632161158544477e-05
-3.7683021218981594e-05,3.0974224500823766e-05,-3.523680425132625e-05,2.4638056856929325e-05
-4.2059346014866605e-05,2.908113856392447e-05,-3.563287100405432e-05,2.4589993699919432e-05
-4.719846765510738e-05,3.0193052225513384e-05,-3.6024848668603227e-05,2.5141727746813558e-05
-4.7501940571237355e-05,3.586560706025921e-05,-3.695953273563646e-05,2.6835938115254976e-05
-4.598290615831502e-05,4.1291066736448556e-05,-3.535607174853794e-05,2.7871868951478973e-05
-4.8580604925518855e-05,4.483966768020764e-05,-2.8510126867331564e-05,2.700126242416445e-05
-5.083197902422398e-05,4.542019451037049e-05,-2.428124935249798e-05,2.4145316274370998e-05
-5.0976130296476185e-05,4.344659100752324e-05,-2.5717952667037025e-05,2.070926893793512e-05
-4.9038873839890584e-05,4.090914080734365e-05,-2.8562610168592073e-05,2.006194699788466e-05
-4.5719709305558354e-05,4.019774860353209e-05,-2.8026208383380435e-05,1.9147630155202933e-05
-4.295899998396635e-05,3.836618270725012e-05,-2.731935637712013e-05,1.636106208025012e-05
-4.67594618385192e-05,3.452237797318958e-05,-2.7555313863558695e-05,1.579897798364982e-05
-5.3830561228096485e-05,3.0234346922952682e-05,-2.612312528071925e-05,1.7968031897908077e-05
-5.854961273143999e-05,2.5072597054531798e-05,-2.486638186383061e-05,2.095162562909536e-05
-6.55216135783121e-05,2.2468437236966565e-05,-2.9702716346946545e-05,2.44542407017434e-05
-7.336081034736708e-05,2.5343892048113048e-05,-3.582375939004123e-05,2.3812332074157894e-05
-7.489597919629887e-05,3.277511495980434e-05,-3.6125209589954466e-05,2.3417233023792505e-05
-6.983435014262795e-05,4.141857789363712e-05,-3.325708894408308e-05,2.6067247745231725e-05
-6.484848563559353e-05,4.817468288820237e-05,-3.4066553780576214e-05,2.919829603342805e-05
-6.390110502252355e-05,5.296731251291931e-05,-3.6334360629552975e-05,2.7007308744941838e-05
-5.814520409330726e-05,5.728062387788668e-05,-3.511845352477394e-05,2.4603425117675215e-05
-5.043071723775938e-05,5.8652283769333735e-05,-3.172456126776524e-05,2.3810640414012596e-05
-4.875651575275697e-05,5.573556336457841e-05,-2.8213227778906003e-05,2.4074715838651173e-05
-5.174474063096568e-05,4.9810791097115725e-05,-2.6931451429845765e-05,2.4492825104971416e-05
-5.289305408950895e-05,3.672666571219452e-05,-2.7841371775139123e-05,2.1500783986994065e-05
-5.228685768088326e-05,2.1897474653087556e-05,-2.60511260421481e-05,1.6595924535067752e-05
-5.4381995141739026e-05,8.593577149440534e-06,-2.187471000070218e-05,1.4561165698978584e-05
-5.532411523745395e-05,-3.938147983717499e-06,-1.754541153786704e-05,1.65158198797144e-05
-5.330539352144115e-05,-1.095703828468686e-05,-1.5014430573501159e-05,1.5527142750215717e-05
-5.032118133385666e-05,-7.0244891503534745e-06,-1.595589674252551e-05,1.295842866966268e-05
-5.2229472203180194e-05,6.201069936651038e-06,-1.8153088603867218e-05,1.2767435691785067e-05
-5.772328222519718e-05,1.9346711269463412e-05,-1.6369334844057448e-05,1.629422331461683e-05
-6.239130743779242e-05,2.966605097753927e-05,-1.2672322554863058e-05,1.9079116100328974e-05
-5.99671111558564e-05,3.5574277717387304e-05,-1.2403517757775262e-05,2.2212476324057207e-05
-5.45118200534489e-05,3.998714964836836e-05,-1.6158341168193147e-05,2.8400618248269893e-05
-5.042879274697043e-05,4.7330355300800875e-05,-1.933394196385052e-05,3.6072771763429046e-05
-4.392860864754766e-05,5.505192166310735e-05,-1.7879654478747398e-05,4.049997733091004e-05
-3.560744517017156e-05,5.6323482567677274e-05,-1.592970875208266e-05,3.969274985138327e-05
-2.9653781894012354e-05,5.4759519116487354e-05,-1.450197942176601e-05,3.5517572541721165e-05
-2.4049842977547087e-05,5.392310777097009e-05,-1.251567209692439e-05,3.056817877222784e-05
-1.452551623515319e-05,5.105465970700607e-05,-1.235077616001945e-05,2.7482468794914894e-05
-6.9401130531332456e-06,5.072671774541959e-05,-1.6684787624399178e-05,2.5258956156903878e-05
-4.865964911004994e-06,5.318406329024583e-05,-2.0809318812098354e-05,2.4680419301148504e-05
-5.928571226831991e-06,5.1652379625011235e-05,-2.3088503439794295e-05,2.984017010021489e-05
-1.1117288522655144e-05,4.767197242472321e-05,-2.7278172638034448e-05,3.45910266332794e-05
-1.5170956430665683e-05,4.676801836467348e-05,-2.836298335751053e-05,3.312647822895087e-05
-1.725532638374716e-05,5.32642807229422e-05,-2.38464490394108e-05,3.2431325962534174e-05
-2.426973333058413e-05,6.225024844752625e-05,-1.883863478724379e-05,3.534095230861567e-05
-3.186653339071199e-05,6.378955004038289e-05,-1.5033726413093973e-05,3.7444198824232444e-05
-3.7462723412318155e-05,5.729621625505388e-05,-1.6091868019429967e-05,3.534087954903953e-05
-4.439658732735552e-05,4.769494626088999e-05,-1.885800520540215e-05,3.133331483695656e-05
-4.8445494030602276e-05,3.946757715311833e-05,-1.9310038624098524e-05,2.760548159130849e-05
-4.6729597670491785e-05,3.559569449862465e-05,-1.966791933227796e-05,2.365004547755234e-05
-4.362489562481642e-05,3.656204717117362e-05,-2.354167190787848e-05,2.0192166630295105e-05
-4.499827264226042e-05,3.8636204408248886e-05,-2.5395384000148624e-05,1.9508628611220047e-05
-5.526534732780419e-05,3.873123205266893e-05,-2.6024275939562358e-05,1.9113178495899774e-05
-6.452534580603242e-05,3.3476164389867336e-05,-2.89721956505673e-05,1.6705173038644716e-05
-6.723263504682109e-05,2.1276075131027028e-05,-3.3120682928711176e-05,1.5266736227204092e-05
-6.419525743694976e-05,8.486500519211404e-06,-3.529576861183159e-05,1.6186333596124314e-05
-5.899175812373869e-05,1.2229455705892178e-06,-3.519076926750131e-05,1.5452638763235882e-05
-5.380231232265942e-05,-2.0266852516215295e-06,-3.7100151530466974e-05,1.1250084753555711e-05
-5.11779981025029e-05,-3.1507856874668505e-06,-4.069150236318819e-05,8.358346349268686e-06
-5.2398678235476837e-05,-1.2972410559086711e-06,-4.048375558340922e-05,9.815029443416279e-06
-5.553029041038826e-05,1.3746836202699342e-06,-3.400463538127951e-05,1.174934641312575e-05
-5.9134592447662726e-05,2.7322371352056507e-06,-2.9961656764498912e-05,1.0176556315855123e-05
-6.337209924822673e-05,6.906799171702005e-06,-3.184946035617031e-05,8.672039257362485e-06
-6.789492908865213e-05,1.2668427189055365e-05,-3.404950984986499e-05,8.582526788813993e-06
-6.869597564218566e-05,1.537118077976629e-05,-3.1730069167679176e-05,7.983199793670792e-06
-6.598857726203278e-05,1.7177237168652937e-05,-2.5062370696105063e-05,9.529265298624523e-06
-6.275115447351709e-05,2.127487641701009e-05,-1.8844919395633042e-05,1.4261559044825844e-05
-6.186917016748339e-05,2.6176268875133246e-05,-1.8944338080473244e-05,1.9386288840905763e-05
-6.635569297941402e-05,3.4303855500184e-05,-2.554148159106262e-05,1.8919052308774553e-05
-7.154318882385269e-05,4.064301901962608e-05,-3.251482849009335e-05,1.4056312465982046e-05
-6.31758157396689e-05,4.1712759411893785e-05,-3.2614883821224794e-05,1.4895933418301865e-05
-5.0754832045640796e-05,4.42441669292748e-05,-2.9582450224552304e-05,1.584256096975878e-05
-4.85229174955748e-05,4.786369754583575e-05,-2.5231800464098342e-05,1.2300301023060456e-05
-5.7690853282110766e-05,4.622350388672203e-05,-2.239959576399997e-05,1.0458679753355682e-05
-6.298675725702196e-05,3.699885564856231e-05,-1.8930786609416828e-05,1.0697938705561683e-05
-5.688139935955405e-05,2.6493777113500983e-05,-1.665866693656426e-05,1.4556944734067656e-05
-5.294271250022575e-05,2.300464257132262e-05,-1.764312582963612e-05,1.8883763914345764e-05
-5.257432712824084e-05,2.644230153237004e-05,-1.728722418192774e-05,2.238913657492958e-05
-5.408036304288544e-05,2.6271085516782477e-05,-1.791414979379624e-05,2.551196485001128e-05
-5.255184441921301e-05,2.1867819668841548e-05,-2.6644509489415213e-05,2.5398094294359908e-05
-4.819648893317208e-05,1.8713817553361878e-05,-3.982253838330507e-05,2.4494544049957767e-05
-4.698937482316978e-05,1.8982749679707922e-05,-4.7169374738587067e-05,2.530793244659435e-05
-4.677331889979541e-05,2.1690961148124188e-05,-4.761291711474769e-05,2.6192203222308308e-05
-4.2341649532318115e-05,2.7510483050718904e-05,-4.2414576455485076e-05,2.4930001018219627e-05
-3.645346441771835e-05,3.220645521651022e-05,-3.657979323179461e-05,2.245801078970544e-05
-3.303870471427217e-05,3.151212149532512e-05,-3.3737254852894694e-05,2.2081099814386107e-05
-3.135462975478731e-05,2.9439243007800542e-05,-3.373314757482149e-05,2.3637932827114128e-05
-3.257585194660351e-05,3.125844523310661e-05,-3.269259832450189e-05,2.3589653210365213e-05
-3.591531640267931e-05,3.519693927955814e-05,-2.8794642275897786e-05,2.3338427126873285e-05
-3.877136987284757e-05,3.965955329476856e-05,-2.3504480850533582e-05,2.3544773284811527e-05
-4.002820423920639e-05,4.927904956275597e-05,-1.9748795239138417e-05,2.4144666895153932e-05
-4.237646498950198e-05,5.547831460717134e-05,-1.976834209926892e-05,2.3300819520954974e-05
-4.591394099406898e-05,5.394880281528458e-05,-2.2446198272518814e-05,2.0369529011077248e-05
-4.8916899686446413e-05,5.1781447837129235e-05,-2.0756382582476363e-05,1.7177861082018353e-05
-4.686867032432929e-05,4.875940066995099e-05,-1.7114236470661126e-05,1.7121079508797266e-05
-3.8690632209181786e-05,4.485510362428613e-05,-1.8692244339035824e-05,2.2101432477938943e-05
-3.556482624844648e-05,4.59134898846969e-05,-2.2949878257350065e-05,2.7139780286233872e-05
-4.230164267937653e-05,4.8328412958653644e-05,-2.6394467568024993e-05,3.116654261248186e-05
-4.920573337585665e-05,4.5361801312537864e-05,-2.6571753551252186e-05,3.068346268264577e-05
-5.3278501582099125e-05,4.149807136855088e-05,-2.6682066163630225e-05,2.5822182578849606e-05
-5.9393343690317124e-05,4.11514010920655e-05,-3.0189106837497093e-05,2.436226532154251e-05
-6.290825695032254e-05,4.322650420363061e-05,-3.398880289751105e-05,2.4202232452807948e-05
-6.04628148721531e-05,4.546338095678948e-05,-3.371146885911003e-05,2.2984844690654427e-05
-5.4448468290502205e-05,4.173738489043899e-05,-2.9861546863685362e-05,2.2268022803473286e-05
-5.1156999688828364e-05,3.124319118796848e-05,-2.511670936655719e-05,2.1306403141352348e-05
-4.8940928536467254e-05,1.6880594557733275e-05,-2.044339998974465e-05,2.2924315999262035e-05
-4.178194285486825e-05,4.678529876400717e-06,-1.9796734704868868e-05,2.5142029699054547e-05
-3.733432822627947e-05,8.894723464436538e-07,-1.852870627772063e-05,2.5141593141597696e-05
-3.8088062865426764e-05,4.166919552517356e-06,-1.66708978213137e-05,2.3561988200526685e-05
-4.1091949242400005e-05,1.1042337064282037e-05,-1.6086043615359813e-05,2.1868470867048018e-05
-4.247469041729346e-05,1.64143511938164e-05,-1.7100201148423366e-05,2.1879135601921007e-05
-4.3933432607445866e-05,1.8467992049409077e-05,-1.828899075917434e-05,2.3908984076115303e-05
-4.68431826448068e-05,1.846649502112996e-05,-1.734945908538066e-05,2.6770330805447884e-05
-4.961930608260445e-05,1.8773354895529337e-05,-1.4348564036481548e-05,2.8020351237501018e-05
-4.7896239266265184e-05,2.0108138414798304e-05,-1.0176886462431867e-05,2.6759231332107447e-05
-4.485143654164858e-05,2.154193316528108e-05,-7.218493919936009e-06,2.5334673409815878e-05
-4.4875236199004576e-05,2.017382394114975e-05,-7.545303105871426e-06,2.5892253688653e-05
-4.480407005758025e-05,1.6560361473239027e-05,-1.2209084161440842e-05,2.5992658265749924e-05
-4.40281983173918e-05,1.7883285181596875e-05,-1.635991793591529e-05,2.6115669243154116e-05
-4.627915768651292e-05,2.493596366548445e-05,-1.8271060980623588e-05,3.064272095798515e-05
-5.300901102600619e-05,3.5354103602003306e-05,-1.978422915271949e-05,3.5788907553069293e-05
-6.074607517803088e-05,4.245627860655077e-05,-1.7896836652653292e-05,3.521771577652544e-05
-6.451256922446191e-05,4.092285598744638e-05,-1.3342119927983731e-05,3.277464202255942e-05
-6.03438493271824e-05,3.662101153167896e-05,-1.8948503566207364e-05,3.0664727091789246e-05
-5.8483688917476684e-05,3.09748575091362e-05,-2.745394522207789e-05,3.26560802932363e-05
-5.815361873828806e-05,2.845172639354132e-05,-2.931612471002154e-05,3.469348303042352e-05
-5.598464485956356e-05,2.6688980142353103e-05,-2.6493225959711708e-05,3.744167406694032e-05
-4.932074079988524e-05,2.2008040104992688e-05,-2.4440611014142632e-05,4.208066820865497e-05
-4.4015680032316595e-05,2.3447402782039717e-05,-2.4897333787521347e-05,3.94762828364037e-05
-4.7020675992826e-05,3.0818715458735824e-05,-2.5444720449741e-05,3.245833431719802e-05
-5.5271022574743256e-05,3.751859549083747e-05,-2.5719136829138733e-05,2.7417951059760526e-05
-6.61827070871368e-05,3.970883335568942e-05,-2.7074853278463706e-05,2.6410381906316616e-05
-7.127073331503198e-05,3.9758153434377164e-05,-2.9863153031328693e-05,2.6101857656612992e-05
-6.812314677517861e-05,3.833885784843005e-05,-3.2516138162463903e-05,2.5339519197586924e-05
-6.354443030431867e-05,3.8230253267101943e-05,-3.395038584130816e-05,2.3407126718666404e-05
-6.0964986914768815e-05,3.7437828723341227e-05,-3.5004726669285446e-05,2.0283954654587433e-05
-5.754907397204079e-05,2.8915446819155477e-05,-3.685744377435185e-05,1.597827758814674e-05
-5.318993135006167e-05,1.7429811123292893e-05,-3.7599835195578635e-05,1.3934531125414651e-05
-5.416372368927114e-05,8.958098987932317e-06,-3.5288521758047864e-05,1.4589016245736275e-05
-6.0791488067479804e-05,6.805514658481115e-07,-2.950875204987824e-05,1.64658540597884e-05
-6.578836473636329e-05,-9.55393352342071e-06,-2.4078593924059533e-05,1.860476186266169e-05
-6.677563942503184e-05,-1.8607546735438518e-05,-2.2552028895006515e-05,1.9537415937520564e-05
-6.459429278038442e-05,-2.6788002287503332e-05,-2.473019230819773e-05,2.099210541928187e-05
-6.189935083966702e-05,-3.471477248240262e-05,-2.5930859919753857e-05,2.288157702423632e-05
-5.932852945988998e-05,-3.8795034924987704e-05,-2.634800512169022e-05,2.2454227291746065e-05
-5.687089651473798e-05,-3.076261782553047e-05,-2.7551206585485488e-05,1.706629882392008e-05
-5.7331944844918326e-05,-8.493448149238247e-06,-3.0021103157196194e-05,1.0867760465771426e-05
-6.185557140270248e-05,2.1848032702109776e-05,-3.250848749303259e-05,1.123757192544872e-05
-6.129938992671669e-05,5.072624480817467e-05,-3.292051769676618e-05,1.3903270883020014e-05
-5.188792056287639e-05,7.468026160495356e-05,-2.8508671675808728e-05,1.4577489309886005e-05
-4.511583028943278e-05,9.620614582672715e-05,-2.674368442967534e-05,1.6946376490523107e-05
-4.6258493966888636e-05,0.00010780334559967741,-2.8669606763287447e-05,1.9756766050704755e-05
-4.773454929818399e-05,0.00011122680734843016,-2.572267476352863e-05,2.0091969417990185e-05
-4.984484621672891e-05,0.00011303770588710904,-2.3418993805535138e-05,1.8570213796920143e-05
-5.448918818728998e-05,0.00011404132965253666,-2.586788104963489e-05,1.704833994153887e-05
-6.0154940001666546e-05,0.00011276717850705609,-2.8544985980261117e-05,1.6711590433260426e-05
-6.541459151776507e-05,0.00010475636372575536,-2.8564467356773093e-05,2.0014702386106364e-05
-6.577728345291689e-05,8.56131809996441e-05,-3.15484321617987e-05,2.2296944734989665e-05
-6.382099672919139e-05,5.848704313393682e-05,-3.588995969039388e-05,2.263361784571316e-05
-5.503620195668191e-05,3.8399310142267495e-05,-3.455423939158209e-05,2.3246606360771693e-05
-4.425322913448326e-05,3.207319969078526e-05,-3.044935510843061e-05,2.4239252525148913e-05
-4.092140443390235e-05,3.509727685013786e-05,-2.224113814008888e-05,2.4327358914888464e-05
-4.179894312983379e-05,3.721503526321612e-05,-7.148119493649574e-06,2.3682412574999034e-05
-4.233327126712538e-05,3.8181191484909505e-05,2.397492153249914e-06,2.3923328626551665e-05
-4.037844337290153e-05,4.1193285142071545e-05,-3.15927286465012e-06,2.6465086193638854e-05
-3.8484908145619556e-05,4.4796979636885226e-05,-1.6080964996945113e-05,2.999669777636882e-05
-3.7253998016240075e-05,4.5875145588070154e-05,-2.611616946524009e-05,3.310887041152455e-05
-4.0360035200137645e-05,4.489781349548139e-05,-3.536812437232584e-05,3.5840319469571114e-05
-4.6663724788231775e-05,4.35093097621575e-05,-4.657749377656728e-05,3.5250242945039645e-05
-4.943617750541307e-05,3.8441223296104e-05,-5.553547089220956e-05,3.23323329212144e-05
-4.56309353467077e-05,3.0779334338149056e-05,-5.620762021862902e-05,3.2056119380285963e-05
-4.0348862967221066e-05,2.8119058697484434e-05,-4.537835775408894e-05,3.117681262665428e-05
-3.646054392447695e-05,3.405271127121523e-05,-2.8049724278389476e-05,2.7900057830265723e-05
-3.4728353057289496e-05,4.431105844560079e-05,-8.631244782009162e-06,2.851223871402908e-05
-3.597491013351828e-05,4.994983464712277e-05,4.1572861846361775e-06,3.3015407097991556e-05
-4.070891372975893e-05,4.251676728017628e-05,5.378281912271632e-06,3.653331441455521e-05
-4.5225027861306444e-05,2.776648943836335e-05,-8.810968097350269e-07,3.477454083622433e-05
-4.597032238962129e-05,1.1674486813717522e-05,-1.3834447599947453e-05,3.354199725436047e-05
-4.3799700506497175e-05,1.5881937542872038e-06,-2.448890700179618e-05,3.3321739465463907e-05
-4.112055466976017e-05,3.210071781722945e-07,-3.257010757806711e-05,2.9977063604746945e-05
-4.27741942985449e-05,-2.6605569019011455e-06,-3.8309197407215834e-05,2.5535158783895895e-05
-4.300681393942796e-05,-8.03984312369721e-06,-3.544884020811878e-05,2.399258482910227e-05
-4.195064684608951e-05,-8.208214239857625e-06,-2.6932902983389795e-05,2.5259694666601717e-05
-4.387759690871462e-05,-4.428120064403629e-06,-1.4259247109293938e-05,2.7980311642750166e-05
-4.7266246838262305e-05,2.8783981633750955e-06,-2.427383606118383e-06,2.8328968255664222e-05
-5.3276198741514236e-05,1.2253840395715088e-05,3.8558341657335404e-06,2.731596578087192e-05
-5.778870399808511e-05,1.7629210560698994e-05,9.098155260289786e-07,2.7863037757924758e-05
-5.867018990102224e-05,1.662320937612094e-05,-6.663770818704506e-06,2.7964710170635954e-05
-5.643173062708229e-05,1.1958723916905e-05,-1.3744090210821014e-05,2.6202944354736246e-05
-5.296943345456384e-05,5.092412720841821e-06,-1.6935349776758812e-05,2.2666374206892215e-05
-5.42085399501957e-05,4.5012572513769555e-07,-1.386200437991647e-05,2.0425668481038883e-05
-5.773686643806286e-05,7.88206307333894e-06,-6.997202035563532e-06,2.1142330297152512e-05
-5.894997593713924e-05,2.3577495085191913e-05,-5.527327175514074e-06,2.5957366233342327e-05
-5.831358430441469e-05,3.44990476150997e-05,-1.4080244000069797e-05,3.0135632187011652e-05
-5.892708577448502e-05,3.86242063541431e-05,-2.808106000884436e-05,2.94174715236295e-05
-6.0187376220710576e-05,4.364365304354578e-05,-4.185967554803938e-05,2.8664173441939056e-05
-6.364845467032865e-05,5.095032247481868e-05,-5.388576028053649e-05,3.110603574896231e-05
-6.91134191583842e-05,5.692426202585921e-05,-6.679268699372187e-05,3.201946310582571e-05
-7.014915900072083e-05,5.805014370707795e-05,-7.944408571347594e-05,3.064257907681167e-05
-6.380891136359423e-05,5.479061292135157e-05,-8.685729699209332e-05,2.799317917379085e-05
-5.865596540388651e-05,5.343252996681258e-05,-7.918503251858056e-05,2.67543855443364e-05
-5.9888338000746444e-05,5.4480518883792683e-05,-6.003698945278302e-05,2.4984155970741995e-05
-6.021672015776858e-05,5.255368887446821e-05,-4.4529198930831626e-05,2.253743696201127e-05
-5.9362457250244915e-05,4.659401020035148e-05,-3.4771925129462034e-05,2.3696755306445993e-05
-5.888719897484407e-05,3.686553463921882e-05,-2.8285279768169858e-05,2.338086414965801e-05
-5.4762771469540894e-05,2.7648928153212182e-05,-2.7292904633213766e-05,2.0211427909089252e-05
-4.855700535699725e-05,2.8108770493417978e-05,-3.0867900932207704e-05,1.6662399502820335e-05
-4.5089927880326286e-05,3.421563087613322e-05,-3.4960532502736896e-05,1.4641024790762458e-05
-4.019905463792384e-05,3.958397428505123e-05,-3.3176547731272876e-05,1.6891812265384942e-05
-3.276602001278661e-05,4.4082691601943225e-05,-2.6810093913809396e-05,2.1570062017417513e-05
-2.690238761715591e-05,4.300417276681401e-05,-1.9578803403419442e-05,2.6098185117007233e-05
-2.455419598845765e-05,3.876243863487616e-05,-1.6463685824419372e-05,3.0253149816417135e-05
-2.4628427127026953e-05,3.5990487958770245e-05,-1.3508200936485082e-05,3.506237771944143e-05
-2.24982086365344e-05,3.2335632567992434e-05,-8.31042962090578e-06,3.859549178741872e-05
-2.002047040150501e-05,2.429754204058554e-05,4.137857558816904e-06,3.557852323865518e-05
-2.1515126718441024e-05,1.949134275491815e-05,2.879074600059539e-05,2.9916227504145354e-05
-2.612410935398657e-05,2.5678902602521703e-05,5.365531615098007e-05,2.6103916752617806e-05
-2.792126360873226e-05,3.8975638744886965e-05,6.08519148954656e-05,2.150252112187445e-05
-2.6652580345398746e-05,5.4184089094633237e-05,4.735890979645774e-05,1.5091823115653824e-05
-2.5866425858112052e-05,6.597406172659248e-05,2.327992842765525e-05,1.0870079677260946e-05
-2.5825434931903146e-05,7.124803960323334e-05,-3.1872402814769885e-06,1.1788582014560234e-05
-2.8428665245883167e-05,7.131422898964956e-05,-2.2261408958001994e-05,1.5796609659446403e-05
-3.589947664295323e-05,7.198865932878107e-05,-2.6553994757705368e-05,2.0371087884996086e-05
-4.379532765597105e-05,7.497334445361048e-05,-1.4684103916806635e-05,2.5022223780979402e-05
-4.9250200390815735e-05,7.556255877716467e-05,3.2497332540515345e-06,2.9896820706198923e-05
-5.3186973673291504e-05,7.173996709752828e-05,6.779444447602145e-06,3.3485448511783034e-05
-5.513124415301718e-05,6.453521200455725e-05,-1.900249299069401e-05,3.518982703099027e-05
-5.534688534680754e-05,4.964055187883787e-05,-6.725185812683776e-05,3.461718006292358e-05
-5.551306458073668e-05,1.5281289961421862e-05,-0.0001192384515888989,2.950686939584557e-05
-5.616303678834811e-05,-3.4599972423166037e-05,-0.00016683645662851632,2.0901308744214475e-05
-5.504651926457882e-05,-8.384845568798482e-05,-0.00019676978990901262,1.6996833437588066e-05
-5.074633372714743e-05,-0.00011952607746934518,-0.00016176063218154013,2.0669433069997467e-05
-4.056378747918643e-05,-0.00011543204163899645,-7.311693480005488e-05,2.76405244221678e-05
-3.43129358952865e-05,-7.595365605084226e-05,2.79168966699217e-06,2.9553255444625393e-05
-3.830095010926016e-05,-3.8746122299926355e-05,3.815460513578728e-05,2.2485386580228806e-05
-4.8647816583979875e-05,-1.861884811660275e-05,4.354588236310519e-05,1.27324665299966e-05
-5.4052594350650907e-05,-5.33913998879143e-06,3.673153696581721e-05,2.0117763597227167e-06
-5.298775067785755e-05,3.2075915896712104e-06,2.2586920749745332e-05,-7.058012215566123e-06
-5.02842158311978e-05,9.442602504350361e-07,6.20721129962476e-06,-9.746724572323728e-06
-4.5924880396341905e-05,1.0525675861572381e-05,-6.812663286837051e-06,-6.40959115116857e-06
-4.397988595883362e-05,4.22411976614967e-05,-1.4850969819235615e-05,-3.057550429730327e-06
-4.3181353248655796e-05,6.74196780892089e-05,-2.5717004973557778e-05,-2.415975814074045e-06
-4.357405850896612e-05,6.630512507399544e-05,-4.41935371782165e-05,1.279197135772847e-06
-4.30902982770931e-05,4.9336773372488096e-05,-6.77943171467632e-05,9.853978554019704e-06
-4.2385319829918444e-05,4.00680692109745e-05,-8.184694888768718e-05,2.0059658709215e-05
-4.2761839722516015e-05,4.560709203360602e-05,-7.247034955071285e-05,2.5786226615309715e-05
-4.587524745147675e-05,5.388544741435908e-05,-5.0574253691593185e-05,2.1438656403915957e-05
-5.229686212260276e-05,5.417438660515472e-05,-3.603592631407082e-05,1.2014112144242972e-05
-6.10348470218014e-05,4.300285945646465e-05,-3.386582829989493e-05,7.725136129010934e-06
-6.820369890192524e-05,2.372351627855096e-05,-3.6786299460800365e-05,8.040506145334803e-06
-7.283235754584894e-05,1.0530465260671917e-05,-4.1737152059795335e-05,7.412591912725475e-06
-7.570890011265874e-05,1.9592989701777697e-05,-4.4178123062010854e-05,8.31544730317546e-06
-7.611366891069338e-05,5.109491030452773e-05,-4.0211289160652086e-05,1.3975425645185169e-05
-7.521831867052242e-05,8.754804730415344e-05,-3.18498641718179e-05,2.0419647626113147e-05
-7.83892028266564e-05,0.0001084350878954865,-2.4631664928165264e-05,2.5039718821062706e-05
-8.761799108469859e-05,0.00010701303835958242,-2.0660048903664574e-05,2.6831834475160576e-05
-9.146288357442245e-05,9.738998051034287e-05,-1.7892902178573422e-05,2.830959238053765e-05
-8.681684266775846e-05,9.201194916386157e-05,-1.9891744159394875e-05,3.028048377018422e-05
-7.776912389090285e-05,8.617191633675247e-05,-2.3556478481623344e-05,2.7290348953101784e-05
-6.976006261538714e-05,7.6265525422059e-05,-2.2350879589794204e-05,2.537565706006717e-05
-6.545874930452555e-05,6.609325646422803e-05,-2.0703802874777466e-05,2.5946947062038817e-05
-6.608147668885067e-05,5.5735694331815466e-05,-6.377581030392321e-06,2.4464323360007256e-05
-7.109836587915197e-05,4.5549797505373135e-05,2.827056414389517e-05,2.0681211026385427e-05
-7.0907139161136e-05,3.9927836041897535e-05,5.8772944612428546e-05,1.4456417375185993e-05
-6.229591963347048e-05,4.110291411052458e-05,6.640840001637116e-05,1.1428849575167987e-05
-5.145750765223056e-05,4.983217513654381e-05,4.958478893968277e-05,1.32781851789332e-05
-4.661548155127093e-05,5.363686796044931e-05,2.099549055856187e-05,1.8390446712146513e-05
-4.567885844153352e-05,4.280413850210607e-05,-5.293728918331908e-06,2.3291000616154633e-05
-4.3420739530120045e-05,2.4367502192035317e-05,-3.1047777156345546e-05,2.355972355871927e-05
-4.196654845145531e-05,1.256704763363814e-05,-5.4653290135320276e-05,2.176993621105794e-05
-4.306751361582428e-05,8.832624189381022e-06,-6.613682489842176e-05,2.243990275019314e-05
-4.508233905653469e-05,3.7821412206540117e-06,-6.130791734904051e-05,2.6662197342375293e-05
-4.595362042891793e-05,-3.649127620519721e-06,-4.722517405753024e-05,3.197234036633745e-05
-4.296458064345643e-05,-5.946893907093909e-06,-3.337494854349643e-05,3.352167550474405e-05
-3.529997411533259e-05,8.547801826352952e-07,-2.6502037144382484e-05,3.152153658447787e-05
-2.8529169867397286e-05,1.1678311238938477e-05,-2.6969202735926956e-05,3.030038351425901e-05
-2.459873940097168e-05,2.043757376668509e-05,-3.0232557037379593e-05,2.9458316930686124e-05
-2.3306731236516498e-05,2.310586023668293e-05,-3.51414673787076e-05,2.8582844606717117e-05
-2.5093011572607793e-05,2.4574101189500652e-05,-3.948646190110594e-05,3.105186260654591e-05
-2.9531285690609366e-05,2.90334974124562e-05,-3.971776823163964e-05,3.6926623579347506e-05
-3.826371539616957e-05,3.8028407288948074e-05,-3.882166856783442e-05,3.871132867061533e-05
-4.817256922251545e-05,4.9774178478401154e-05,-4.374431955511682e-05,3.453594763414003e-05
-5.258003147901036e-05,5.760049316450022e-05,-5.143467569723725e-05,3.1914190913084894e-05
-5.238212179392576e-05,5.355571920517832e-05,-5.933897409704514e-05,3.166207898175344e-05
-4.6745983127038926e-05,4.324894325691275e-05,-7.164595444919541e-05,2.8964714147150517e-05
-4.362310573924333e-05,3.463734174147248e-05,-8.507064922014251e-05,2.6162879294133745e-05
-4.538034772849642e-05,2.886619586206507e-05,-9.331123146694154e-05,2.8961354473722167e-05
-4.495681787375361e-05,2.6845385946216993e-05,-9.348720050184056e-05,3.390366327948868e-05
-4.298379644751549e-05,2.461447184032295e-05,-8.089768380159512e-05,3.681682937894948e-05
-3.78607255697716e-05,2.4777653379715048e-05,-5.879707168787718e-05,3.637031841208227e-05
-3.657961497083306e-05,2.6778585379361175e-05,-3.852066583931446e-05,3.4094671718776226e-05
-4.2523781303316355e-05,2.6720677851699293e-05,-2.452322223689407e-05,3.221759834559634e-05
-4.826675649383105e-05,2.3099153622752056e-05,-1.2606663403857965e-05,2.8247295631445013e-05
-4.624774010153487e-05,1.8247963453177363e-05,3.0980825158621883e-06,2.5543213268974796e-05
-4.066133624291979e-05,1.66349364008056e-05,2.0703177142422646e-05,2.5641977117629722e-05
-3.719357482623309e-05,1.3872519048163667e-05,3.094501153100282e-05,2.309318915649783e-05
-3.8207010220503435e-05,7.932485459605232e-06,3.116201696684584e-05,1.6815412891446613e-05
-4.475158857530914e-05,6.554299716299283e-07,2.135919567081146e-05,9.069536645256449e-06
-5.1159477152395993e-05,-4.3983300201944076e-06,2.2965323296375573e-06,2.758294613158796e-06
-5.381221490097232e-05,-1.9612450614658883e-06,-1.8178203390561976e-05,9.188349849864608e-07
-5.2973682613810524e-05,8.43184443510836e-06,-3.199311686330475e-05,5.459033673105296e-06
-5.228916052146815e-05,2.041280640696641e-05,-3.7793797673657537e-05,1.5975252608768642e-05
-5.2869745559291914e-05,2.9888331482652575e-05,-3.925505734514445e-05,2.6472844183444977e-05
-5.517672616406344e-05,3.771646515815519e-05,-3.868605926982127e-05,3.241941885789856e-05
-5.774750025011599e-05,4.226931559969671e-05,-3.853481393889524e-05,3.361615745234303e-05
-6.109344394644722e-05,4.301007356843911e-05,-3.635849861893803e-05,2.9269882361404598e-05
-6.32826195214875e-05,4.5528380724135786e-05,-2.6060095478896983e-05,2.441706419631373e-05
-6.340380787150934e-05,5.4913954954827204e-05,-1.1842809726658743e-05,2.4891109205782413e-05
-6.764033605577424e-05,6.85699051246047e-05,-4.817202352569439e-07,2.6369254555902444e-05
-6.867235788377002e-05,7.338378782151267e-05,7.265173735504504e-06,2.7530853913049214e-05
-6.298723019426689e-05,6.0344002122292295e-05,7.128342531359522e-06,2.9232392989797518e-05
-6.071427560527809e-05,4.209788312437013e-05,-2.063229885607143e-06,3.042946264031343e-05
-5.76508064114023e-05,2.8493372155935504e-05,-1.1875663403770886e-05,3.007658597198315e-05
-5.35273902642075e-05,1.8966529751196504e-05,-1.5099067240953445e-05,2.9708045985898934e-05
-5.046057412982918e-05,1.589415296621155e-05,-1.0760431905509904e-05,3.081637987634167e-05
-5.0061022193403915e-05,1.5599631296936423e-05,-4.921874733554432e-06,3.1636565836379305e-05
-5.135330866323784e-05,1.3631264664581977e-05,-2.183867763960734e-06,3.199292405042797e-05
-5.117653199704364e-05,1.2982212865608744e-05,-3.937536348530557e-06,2.8534339435282163e-05
-4.954643009114079e-05,1.8095866835210472e-05,-1.025838173518423e-05,2.2669117242912762e-05
-4.667873872676864e-05,2.129576932929922e-05,-1.8162316337111406e-05,1.9797535060206428e-05
-4.595999780576676e-05,9.338251402368769e-06,-2.345195025554858e-05,1.852347304520663e-05
-4.4675743993138894e-05,-1.15890115921502e-05,-2.499596848792862e-05,1.7670943634584546e-05
-4.883020301349461e-05,-2.2715050363331102e-05,-2.1631982235703617e-05,1.9695236915140413e-05
-5.781778963864781e-05,-1.4661203749710694e-05,-3.5896430290449644e-06,2.2856904251966625e-05
-6.567823584191501e-05,4.443428679223871e-06,2.0632907762774266e-05,2.597595266706776e-05
-6.502482574433088e-05,2.529462472011801e-05,2.8536849640659057e-05,2.88579012703849e-05
-5.8980705944122747e-05,4.489091952564195e-05,1.3983715689391829e-05,2.9425471439026296e-05
-5.1938037358922884e-05,6.045589179848321e-05,-1.3042241334915161e-05,2.5121244107140228e-05
-4.572890611598268e-05,7.292273949133232e-05,-4.449969856068492e-05,1.966825766430702e-05
-4.1304188926005736e-05,8.930292096920311e-05,-8.024217822821811e-05,1.969979166460689e-05
-3.8056699850130826e-05,0.00010979080252582207,-0.00011507138697197661,2.4801336621749215e-05
-3.5559776733862236e-05,0.00012154947762610391,-0.00012841311399824917,2.726412822084967e-05
-3.4958280593855307e-05,0.00011685596837196499,-0.00010707506589824334,2.37746298807906e-05
-3.5388340620556846e-05,9.983336349250749e-05,-7.30200408725068e-05,2.0082232367713004e-05
-3.5453253076411784e-05,7.229853508761153e-05,-5.284130747895688e-05,1.883737786556594e-05
-4.12493827752769e-05,3.793699579546228e-05,-4.4875938328914344e-05,1.7008858776534908e-05
-4.334114782977849e-05,4.117858225072268e-06,-3.858055788441561e-05,1.20829181469162e-05
-3.136717350571416e-05,-2.0814053641515784e-05,-3.390495839994401e-05,5.407332537288312e-06
-1.8306687707081437e-05,-3.235771509935148e-05,-2.2985250325291418e-05,2.2217154764803126e-06
-1.7685226339381188e-05,-3.9096827094908804e-05,1.9699500626302324e-05,8.774747584539e-06
-1.7332857169094495e-05,-4.254409213899635e-05,7.046978862490505e-05,1.8015698515227996e-05
-1.6962056179181673e-05,-3.72791982954368e-05,7.937539339764044e-05,2.4719140128581785e-05
-2.5680536055006087e-05,-1.9694633010658436e-05,4.5128519559511915e-05,3.087937875534408e-05
-4.1581890400266275e-05,1.0371394637331832e-05,-1.3154920452507213e-05,3.38019963237457e-05
-5.253488052403554e-05,4.059468847117387e-05,-5.980195783195086e-05,3.3562151656951755e-05
-5.5283944675466046e-05,5.01499162055552e-05,-8.10859928606078e-05,3.6942536098649725e-05
-5.6192799092968926e-05,3.712915349751711e-05,-8.550718484912068e-05,4.511275255936198e-05
-5.622845856123604e-05,2.5934681616490707e-05,-7.59520917199552e-05,4.651920244214125e-05
-5.484350913320668e-05,3.474050754448399e-05,-5.286703890305944e-05,3.972592094214633e-05
-5.5145272199297324e-05,5.6127566494978964e-05,-3.2752956030890346e-05,3.219017162336968e-05
-5.625007543130778e-05,7.157075742725283e-05,-3.184288289048709e-05,2.828517790476326e-05
-5.305175363901071e-05,7.106691919034347e-05,-4.397164593683556e-05,2.7088335627922788e-05
-4.6179990022210404e-05,5.6241980928462e-05,-5.780428909929469e-05,2.2905887817614712e-05
