-2.6610767235979438e-05,1.0759215911093634e-05,-1.4388948329724371e-05,4.505664765019901e-05
-2.685697290871758e-05,2.051632691291161e-05,-1.616533518244978e-05,4.543739487417042e-05
-2.8248485250514932e-05,3.14419339701999e-05,-1.64363063959172e-05,3.943618503399193e-05
-2.890456198656466e-05,3.31819464918226e-05,-1.58291823026957e-05,3.640795694082044e-05
-2.888511517085135e-05,3.4154028980992734e-05,-1.476015768275829e-05,4.022223220090382e-05
-2.7477917683427222e-05,3.724043199326843e-05,-1.4461364116868936e-05,4.701644866145216e-05
-2.597794446046464e-05,3.798180478042923e-05,-1.4587603800464422e-05,5.283354767016135e-05
-2.3756312657496892e-05,3.438143539824523e-05,-1.2936349776282441e-05,5.3048312111059204e-05
-2.186434721807018e-05,3.070915408898145e-05,-9.396141649631318e-06,5.1418686780380085e-05
-2.2030411855666898e-05,2.6259125661454163e-05,-8.974543561635073e-06,5.5680931836832315e-05
-2.4816547011141665e-05,2.3676599084865302e-05,-1.0610758181428537e-05,6.10867646173574e-05
-2.751939246081747e-05,2.586098707979545e-05,-1.0111680239788257e-05,6.257127824937925e-05
-2.669594505277928e-05,3.2215368264587596e-05,-9.466072697250638e-06,6.067577123758383e-05
-2.440475145704113e-05,3.8095604395493865e-05,-1.1820085092040244e-05,5.6325170589843765e-05
-2.623161162773613e-05,3.658066634670831e-05,-1.1591275324462913e-05,5.2553743444150314e-05
-3.040077535843011e-05,3.1048792152432725e-05,-6.718649729009485e-06,5.4542160796700045e-05
-3.2757448934717104e-05,2.7345809940015897e-05,-2.8551967261591926e-06,5.930802581133321e-05
-3.157359969918616e-05,2.6512800104683265e-05,-3.16914020004333e-06,6.20072751189582e-05
-2.8961329007870518e-05,2.6203049856121652e-05,-4.234974312566919e-06,6.213499727891758e-05
-2.9013252060394734e-05,2.7296942789689638e-05,-4.244086994731333e-06,6.121804472059011e-05
-2.8359909265418537e-05,3.2990978070301935e-05,-7.022304089332465e-06,5.806969420518726e-05
-2.8147198463557288e-05,4.329556759330444e-05,-8.515833542332985e-06,5.6313489039894193e-05
-2.9488015570677817e-05,4.548470678855665e-05,-6.110292815719731e-06,5.8646568504627794e-05
-2.8153628591098823e-05,3.796457895077765e-05,-3.967805696447613e-06,5.9413243434391916e-05
-2.8168020435259677e-05,3.001965887960978e-05,-2.6373008950031362e-06,6.411820504581556e-05
-2.9350696422625333e-05,2.5095801902352832e-05,-2.4880625915102428e-06,6.550800026161596e-05
-2.623025284265168e-05,2.587431481515523e-05,2.9302773540962335e-08,6.0124970332253724e-05
-2.506239979993552e-05,2.9541246476583183e-05,2.6054156023747055e-06,5.915925794397481e-05
-2.8602433303603902e-05,3.538549935910851e-05,3.4880320072261384e-06,5.9308993513695896e-05
-3.143196227028966e-05,3.789318725466728e-05,3.7512390917981975e-06,5.877219155081548e-05
-2.9502118195523508e-05,2.7664411391015165e-05,3.635521579781198e-06,5.961230635875836e-05
-2.480631519574672e-05,1.6367635907954536e-05,2.1313767319952603e-06,6.078945443732664e-05
-2.06260501727229e-05,1.400133714923868e-05,2.639201568399585e-07,5.816237171529792e-05
-1.890649218694307e-05,1.5978466763044707e-05,-2.4961062194961414e-07,5.5066913773771375e-05
-2.1386616936069913e-05,1.4666707102151122e-05,-2.3150601009547245e-06,5.4226959036896005e-05
-2.4189770556404255e-05,1.1505868314998224e-05,-4.915088084089803e-06,5.612381573882885e-05
-2.2101843569544144e-05,1.0025395567936357e-05,-6.136903721198905e-06,6.094090349506587e-05
-1.8766028006211855e-05,1.1638273463177029e-05,-5.8033397181134205e-06,6.313232734100893e-05
-1.95109641936142e-05,1.4809354979661293e-05,-5.431443696579663e-06,6.206860416568816e-05
-2.2206744688446634e-05,2.0188897906336933e-05,-4.73960290037212e-06,6.250575825106353e-05
-2.3614778910996392e-05,2.658946868905332e-05,-6.691596809105249e-06,6.269882578635588e-05
-2.5567327611497603e-05,2.8581396691151895e-05,-1.074236206477508e-05,6.329169991659e-05
-2.87282164208591e-05,2.874090387194883e-05,-1.4251741049520206e-05,6.521779141621664e-05
-2.8572039809660055e-05,2.729947846091818e-05,-1.598218295839615e-05,6.542833580169827e-05
-2.3625498215551488e-05,2.295965896337293e-05,-1.5400346455862746e-05,6.536574801430106e-05
-2.050238981610164e-05,1.5986688595148735e-05,-1.3096001566736959e-05,6.508215301437303e-05
-2.12389713851735e-05,1.3460175068757962e-05,-1.0308965102012735e-05,6.641635263804346e-05
-2.2034164430806413e-05,1.848034116846975e-05,-8.602303751104046e-06,6.764709542039782e-05
-2.4661347197252326e-05,2.446353028062731e-05,-9.590739864506759e-06,6.865122850285843e-05
-2.6555808290140703e-05,2.2960461137699895e-05,-1.1109594197478145e-05,6.92679823259823e-05
-2.419294833089225e-05,1.3741466318606399e-05,-9.325935934612062e-06,6.906197086209431e-05
-2.2978163542575203e-05,1.1411635568947531e-05,-7.461766472260933e-06,6.673783354926854e-05
-2.599987419671379e-05,1.6356800188077614e-05,-7.111981176421978e-06,5.9887948737014085e-05
-3.131352423224598e-05,2.3229333237395622e-05,-7.791466487105936e-06,5.576188414124772e-05
-3.759916216949932e-05,3.124254726571962e-05,-8.410609552811366e-06,5.716148007195443e-05
-3.914831904694438e-05,3.521440885378979e-05,-1.0673094038793352e-05,5.9987032727804035e-05
-3.5634555388242006e-05,3.01671025226824e-05,-1.2038193744956516e-05,5.841087477165274e-05
-3.367421595612541e-05,1.871670610853471e-05,-1.2153255738667212e-05,5.397832501330413e-05
-3.62751234206371e-05,1.260052067664219e-05,-1.542061727377586e-05,5.4362069931812584e-05
-3.729684976860881e-05,1.636770502955187e-05,-1.868622530309949e-05,5.6621782277943566e-05
-3.4265271096955985e-05,2.3166467144619673e-05,-1.8624505173647776e-05,5.74019031773787e-05
-2.9707980502280407e-05,2.5548552002874203e-05,-1.4080129403737374e-05,5.927919482928701e-05
-2.4829931135172956e-05,2.806443808367476e-05,-1.1282709238003008e-05,6.0665071941912174e-05
-2.126634535670746e-05,2.949617373815272e-05,-1.1663537407002877e-05,5.7966764870798215e-05
-1.8126165741705336e-05,2.7475052775116637e-05,-1.2820622032450046e-05,5.1852010074071586e-05
-1.67252219398506e-05,2.537476029829122e-05,-1.407807030773256e-05,4.918234844808467e-05
-1.745670124364551e-05,2.752173168119043e-05,-1.5740477465442382e-05,5.535842865356244e-05
-2.02471055672504e-05,2.726670390984509e-05,-1.6162910469574854e-05,6.017645864631049e-05
-2.2389476725948043e-05,1.912761217681691e-05,-1.3269147530081682e-05,5.8948971854988486e-05
-2.280804983456619e-05,1.2773506568919402e-05,-1.0235683475912083e-05,5.736972525482997e-05
-2.252168815175537e-05,1.244529994437471e-05,-8.310930752486456e-06,5.8352256019134074e-05
-2.4910355932661332e-05,9.528960617899429e-06,-7.595989700348582e-06,5.834149123984389e-05
-2.771537947410252e-05,6.444497103075264e-06,-6.936284989933483e-06,5.8378238463774323e-05
-2.5773770175874233e-05,8.143253580783494e-06,-6.405180101864971e-06,6.177715113153681e-05
-2.5148754502879456e-05,1.3142766874807421e-05,-8.337991857843008e-06,6.484322511823848e-05
-2.7163450795342214e-05,1.7328018657281063e-05,-1.1123393960588146e-05,6.521594332298264e-05
-2.753335502347909e-05,1.8190354239777662e-05,-1.2283779142308049e-05,6.286883581196889e-05
-2.5793729946599342e-05,2.1853567886864766e-05,-1.2826768397644628e-05,5.924617653363384e-05
-2.223941010015551e-05,2.4902878067223355e-05,-1.2419733138813172e-05,5.667021105182357e-05
-2.0796043827431276e-05,2.264029717480298e-05,-1.4028953955858015e-05,5.631949898088351e-05
-2.3203832824947312e-05,1.8567068764241412e-05,-1.7184212993015535e-05,5.641341340378858e-05
-2.452105763950385e-05,2.035673605860211e-05,-1.8426726455800235e-05,5.814047472085804e-05
-2.4634990040794946e-05,2.699817378015723e-05,-1.5590188922942616e-05,5.700499968952499e-05
-2.718116775213275e-05,2.82512901321752e-05,-1.1067252671637107e-05,5.333553781383671e-05
-2.9392133001238108e-05,2.1006548195146024e-05,-1.1769442608056124e-05,5.190378942643292e-05
-2.9446940970956348e-05,1.6589010556344874e-05,-1.4761079910385888e-05,5.435111597762443e-05
-2.786431105050724e-05,1.866446837084368e-05,-1.4569856830348726e-05,5.773470184067264e-05
-2.6230767616652884e-05,2.5475503207417205e-05,-1.3052543181402143e-05,6.018749991199002e-05
-2.589827090559993e-05,3.0660601623822004e-05,-1.2183242688479368e-05,6.114163988968357e-05
-2.7080197469331324e-05,3.391148129594512e-05,-1.4072084923100192e-05,6.24831736786291e-05
-3.081762042711489e-05,3.915787601727061e-05,-1.6348894860129803e-05,6.671377923339605e-05
-3.460306106717326e-05,4.349177106632851e-05,-1.505075579188997e-05,6.91747191012837e-05
-3.7169338611420244e-05,4.658147008740343e-05,-1.1279030331934337e-05,6.770398613298312e-05
-3.841043871943839e-05,4.755579720949754e-05,-9.12485847948119e-06,6.608638796024024e-05
-3.654007377917878e-05,4.539222936728038e-05,-6.340882009681081e-06,6.596603634534404e-05
-3.103504059254192e-05,4.433130015968345e-05,-2.1395280782599002e-06,6.429829227272421e-05
-2.6346839149482548e-05,4.2056970414705575e-05,-1.5381496041300124e-06,6.014237442286685e-05
-2.5421681129955687e-05,3.398911576368846e-05,-4.6633899728476536e-06,5.5502103350590914e-05
-2.652590956131462e-05,3.003648089361377e-05,-1.0121106242877431e-05,5.479523679241538e-05
-2.6773188437800854e-05,3.172614742652513e-05,-1.3788368050882127e-05,5.449674790725112e-05
-2.6183210138697177e-05,3.6188968806527555e-05,-1.371907455904875e-05,5.3983319958206266e-05
-2.537291220505722e-05,3.690117227961309e-05,-1.1064628779422492e-05,5.433880505734123e-05
-2.1195708541199565e-05,2.993313864863012e-05,-7.94212883192813e-06,5.362274532672018e-05
-1.7685928469290957e-05,2.2337926566251554e-05,-8.769728992774617e-06,5.565720857703127e-05
-1.9596831407397985e-05,2.0811052308999933e-05,-1.219384739670204e-05,6.186294194776565e-05
-2.413967922620941e-05,2.5851833925116807e-05,-1.0394389391876757e-05,6.597035098820925e-05
-2.763697375485208e-05,2.9025412004557438e-05,-7.157193067541812e-06,6.693622708553448e-05
-2.7843860152643174e-05,2.7114301701658405e-05,-6.377417776093353e-06,6.493720138678327e-05
-2.860175482055638e-05,2.3627015252714045e-05,-8.57364557305118e-06,5.764764500781894e-05
-2.9194374292274006e-05,2.292020872118883e-05,-1.4139162885840051e-05,4.99421039421577e-05
-2.847406176442746e-05,2.4651189960422926e-05,-1.4623521565226838e-05,4.644427099265158e-05
-2.840908018697519e-05,2.305024827364832e-05,-1.244629493157845e-05,4.7107670980039984e-05
-2.8140893846284598e-05,2.124026468663942e-05,-1.157480710389791e-05,4.9335387302562594e-05
-2.7259759008302353e-05,2.1646503228112124e-05,-1.155399968411075e-05,5.176466947887093e-05
-2.647571272973437e-05,2.1390060283010826e-05,-1.2900772162538487e-05,5.2729854360222816e-05
-2.7383937776903622e-05,2.016455982811749e-05,-1.510538459115196e-05,5.080750634078868e-05
-2.950802445411682e-05,1.908215017465409e-05,-1.7310594557784498e-05,4.9305879656458274e-05
-3.0253939257818274e-05,1.8427788745611906e-05,-1.7923483028425835e-05,5.1785675168503076e-05
-3.0147330107865855e-05,1.5783247363287956e-05,-1.5636353055015206e-05,5.351569052436389e-05
-3.080520036746748e-05,1.4900063433742616e-05,-1.143215467891423e-05,5.2303035772638395e-05
-3.166343230986968e-05,1.861011696746573e-05,-1.0247298632748425e-05,5.24592433066573e-05
-3.211561852367595e-05,2.134846363333054e-05,-1.0457983080414124e-05,5.368046186049469e-05
-2.880697138607502e-05,1.838401294662617e-05,-8.69215091370279e-06,5.406513810157776e-05
-2.2066007659304887e-05,1.3173167644708883e-05,-7.350070063694147e-06,5.294585571391508e-05
-2.003001827688422e-05,1.33128123707138e-05,-1.0318164640921168e-05,5.127850090502761e-05
-2.3542352209915407e-05,1.5067971617099829e-05,-1.241473091795342e-05,5.09381752635818e-05
-2.3563079594168812e-05,1.3239124200481456e-05,-1.2011483704554848e-05,5.213941403781064e-05
-2.2738529878552072e-05,1.3554797988035716e-05,-1.1756326784961857e-05,5.342252188711427e-05
-2.4972589017124847e-05,1.7609016140340827e-05,-1.1119638656964526e-05,5.382017116062343e-05
-2.5140727302641608e-05,2.0227362256264314e-05,-8.469514796161093e-06,5.20811699971091e-05
-2.2090138372732326e-05,2.4446049792459235e-05,-4.273182639735751e-06,4.887613613391295e-05
-1.9293269360787235e-05,2.5214292691089213e-05,-7.551701855845749e-06,4.678063123719767e-05
-2.1765405108453706e-05,1.8390534023637883e-05,-1.2421669453033246e-05,5.098756082588807e-05
-2.564054011600092e-05,1.9373106624698266e-05,-1.2014707863272633e-05,5.8035715483129025e-05
-2.680675061128568e-05,2.4209377443185076e-05,-1.2670049727603327e-05,6.218485941644758e-05
-2.7361609681975096e-05,2.533846600272227e-05,-1.5457200788659975e-05,6.585271330550313e-05
-2.7525698897079565e-05,2.884830246330239e-05,-1.7671727619017474e-05,6.767814920749515e-05
-2.868347473850008e-05,3.071924584219232e-05,-1.6768884961493313e-05,6.643819506280124e-05
-2.881984255509451e-05,3.0130744562484324e-05,-1.3693515938939527e-05,6.140896584838629e-05
-2.9302829716471024e-05,3.0555798730347306e-05,-1.2062764653819613e-05,5.725130904465914e-05
-3.0900424462743104e-05,2.8353910238365643e-05,-1.5094262380443979e-05,5.585956387221813e-05
-3.1036219297675416e-05,2.6068766601383686e-05,-1.4626175470766611e-05,5.733907164540142e-05
-2.8105419914936647e-05,2.3166196115198545e-05,-8.039757631195243e-06,6.071290772524662e-05
-2.5689972972031683e-05,1.81546693056589e-05,-2.0927327568642795e-06,6.415739335352555e-05
-2.6987414457835257e-05,1.7604299500817433e-05,-1.9447941213002196e-06,6.737844523740932e-05
-3.177413600496948e-05,2.570544893387705e-05,-4.046862159157172e-06,6.653726450167596e-05
-3.439812280703336e-05,3.7102752685314044e-05,-3.361152948855306e-06,6.321559339994565e-05
-3.149248368572444e-05,4.1104369302047417e-05,-2.7816486181109212e-06,6.232882878975943e-05
-2.9675744372070767e-05,3.631038998719305e-05,-4.6225277401390485e-06,6.23277883278206e-05
-2.9194552553235553e-05,2.762942312983796e-05,-8.780438292887993e-06,6.2761981098447e-05
-2.5254134015995078e-05,1.6538875570404343e-05,-1.1253050615778193e-05,6.607495015487075e-05
-2.080371996271424e-05,3.5850430322170723e-06,-9.742587280925363e-06,6.766807928215712e-05
-2.0025518097099848e-05,-2.7388273338146973e-06,-7.1187346293299925e-06,6.550441321451217e-05
-2.2214819182408974e-05,2.6111586066690506e-06,-1.026937025017105e-05,6.606715032830834e-05
-2.6321717086830176e-05,1.139552659878973e-05,-1.5464660464203916e-05,7.121677481336519e-05
-2.842394678737037e-05,1.2233173038112e-05,-1.716083897917997e-05,7.40465329727158e-05
-2.8500862754299305e-05,1.073953535524197e-05,-1.4446003660850693e-05,7.61059345677495e-05
-2.6692950996221043e-05,1.6050031263148412e-05,-9.439431778446306e-06,7.847161032259464e-05
-2.407441752438899e-05,2.1713489331887104e-05,-7.305182407435495e-06,7.575050403829664e-05
-2.197397407144308e-05,2.689536449906882e-05,-7.730796824034769e-06,6.78168362355791e-05
-2.282389505126048e-05,2.8187399948365055e-05,-8.232513209804893e-06,6.412096990970895e-05
-2.4376253350055777e-05,2.0626186596928164e-05,-1.0519395800656639e-05,6.686639972031116e-05
-2.4710856450838037e-05,1.6331254300894216e-05,-1.2725214219244663e-05,6.737748481100425e-05
-2.3735066861263476e-05,2.283562753291335e-05,-1.6148147551575676e-05,6.347963062580675e-05
-2.0752690033987164e-05,3.0109011277090758e-05,-1.8434047888149507e-05,6.007455158396624e-05
-1.9105513274553232e-05,3.312949775136076e-05,-1.6993042663671076e-05,5.8815963711822405e-05
-2.1222123905317858e-05,3.774265496758744e-05,-1.6098227206384763e-05,5.8934499975293875e-05
-2.4344151825062e-05,3.884257603203878e-05,-1.4367410585691687e-05,5.914819848840125e-05
-2.6916990464087576e-05,4.203295611659996e-05,-1.2862380572187249e-05,5.646343561238609e-05
-3.0030138077563606e-05,4.720905053545721e-05,-1.2419384802342393e-05,5.522663559531793e-05
-3.178617771482095e-05,4.171167893218808e-05,-9.22871276998194e-06,5.7499040849506855e-05
-3.053971522604115e-05,2.593456520116888e-05,-2.4105600004986627e-06,6.090417082305066e-05
-2.4666185709065758e-05,1.7045013009919785e-05,2.0373026927700266e-06,6.331467011477798e-05
-2.014327037613839e-05,2.321437386854086e-05,2.076535793094081e-06,6.410708738258108e-05
-2.1348050722735934e-05,3.0039174816920422e-05,1.614044208508858e-06,6.366251909639686e-05
-2.451929140079301e-05,2.7921076252823696e-05,4.517009529081406e-06,6.281130481511354e-05
-2.405253326287493e-05,2.1558711523539387e-05,7.856288902985398e-06,6.178962212288752e-05
-2.123911508533638e-05,1.8083232134813443e-05,4.297161012800643e-06,5.962823342997581e-05
-1.9529845303623006e-05,1.7294973076786846e-05,-3.254585408285493e-06,6.035823389538564e-05
-2.130795837729238e-05,1.8665605239220895e-05,-5.626750407827785e-06,6.479626608779654e-05
-2.5983532395912334e-05,1.9583307221182622e-05,-4.422837719175732e-06,6.757902156095952e-05
-2.8309264962445013e-05,2.0774015865754336e-05,-3.0215392143873032e-06,6.787860911572352e-05
-2.656992364791222e-05,2.055766344710719e-05,-1.929305653902702e-06,6.372968346113339e-05
-2.2145684852148406e-05,1.7879929146147333e-05,-4.3774025471066125e-06,5.4731361160520464e-05
-2.0300898540881462e-05,1.4287126759882085e-05,-9.030738510773517e-06,4.5352018787525594e-05
-2.2917782189324498e-05,1.1352971341693774e-05,-1.0574908628768753e-05,4.347393769421615e-05
-2.503763244021684e-05,1.3059748198429588e-05,-1.0819002454809379e-05,4.8823090764926746e-05
-2.362132909183856e-05,1.4786851352255326e-05,-1.2066820090694819e-05,5.757798862759955e-05
-2.0376477550598793e-05,1.0781774108181708e-05,-9.480009794060607e-06,6.278474756982177e-05
-1.9929904738091864e-05,6.754195965186227e-06,-7.47700050851563e-06,6.143459177110344e-05
-2.1915537217864767e-05,8.751043424126692e-06,-7.507586360588903e-06,5.973859515506774e-05
-2.3884316760813817e-05,1.6733582015149295e-05,-6.163641501188977e-06,5.6410943216178566e-05
-2.586955997685436e-05,1.948310455190949e-05,-3.5634991490951506e-06,5.4724041547160596e-05
-2.695452894840855e-05,1.9150333173456602e-05,-9.717122111396748e-07,5.1909028115915135e-05
-2.758164919214323e-05,1.962323221960105e-05,-1.9183109998266445e-06,5.081109702587128e-05
-2.8780179491150193e-05,1.8635435480973683e-05,-4.6963223212515e-06,5.184301335248165e-05
-2.7701193175744265e-05,1.715524740575347e-05,-6.924078206793638e-06,5.110919300932437e-05
-2.3377511752187274e-05,1.876788701338228e-05,-9.314941053162329e-06,4.7513349272776395e-05
-1.966803210962098e-05,2.2625108613283373e-05,-1.2579698704939801e-05,4.486544639803469e-05
-1.7966447558137588e-05,2.2204432752914727e-05,-1.4268519407778513e-05,4.595161954057403e-05
-1.832567977544386e-05,2.017806218646001e-05,-1.221327420353191e-05,4.69427541247569e-05
-1.8731272575678304e-05,2.0833655071328394e-05,-8.470007742289454e-06,4.8210149543592706e-05
-1.8632214050740004e-05,2.4236876924987882e-05,-6.28163616056554e-06,4.85727287014015e-05
-2.0588049665093422e-05,2.6638892450137064e-05,-3.5852319797413656e-06,4.969348447048105e-05
-2.4547960492782295e-05,2.9662704037036747e-05,-4.655792338326137e-07,5.53185491298791e-05
-2.6795169105753303e-05,3.683372415252961e-05,-1.416887471350492e-06,6.2837396399118e-05
-2.545666939113289e-05,4.39943942183163e-05,-6.925057732587447e-06,6.370709888869897e-05
-2.2881005861563608e-05,4.4208256440469995e-05,-1.3983411918161437e-05,6.152594869490713e-05
-2.217257315351162e-05,4.1750899981707335e-05,-1.7636213669902645e-05,6.079055674490519e-05
-2.0428968127816916e-05,4.032306242152117e-05,-1.682234142208472e-05,5.9036221500718966e-05
-1.7145835954579525e-05,3.8580103137064725e-05,-1.584148412803188e-05,5.2963863709010184e-05
-1.5229940800054464e-05,3.3644762879703194e-05,-1.666114440013189e-05,4.8115183744812384e-05
-1.6721922293072566e-05,2.311357638973277e-05,-1.660084308241494e-05,5.1931769121438265e-05
-2.0224628315190785e-05,1.4373610611073673e-05,-1.577066541358363e-05,5.8333891502115875e-05
-2.2165848349686712e-05,1.2270280421944335e-05,-1.553861511638388e-05,5.941637573414482e-05
-2.3384436644846573e-05,1.2011168109893333e-05,-1.4113172255747486e-05,5.732138015446253e-05
-2.324300294276327e-05,1.316005364060402e-05,-1.169111692433944e-05,5.604955003946088e-05
-2.3844087991164997e-05,1.9513090592226945e-05,-8.616954801254906e-06,5.7095527154160663e-05
-2.381735248491168e-05,2.7503747332957573e-05,-4.447399078344461e-06,5.6314700486836955e-05
-2.2312553483061492e-05,3.0999632144812495e-05,-4.978606284566922e-06,5.6011358537944034e-05
-2.3047194190439768e-05,2.926163506344892e-05,-1.1139969501527958e-05,6.019795182510279e-05
-2.582354318292346e-05,2.1423153157229535e-05,-1.8611504856380634e-05,6.178994954098016e-05
-2.796563239826355e-05,1.856918061093893e-05,-2.310064883204177e-05,5.590361979557201e-05
-2.7502153898240067e-05,1.9441908079897985e-05,-2.1654295778716914e-05,4.885196904069744e-05
-2.490754923201166e-05,2.0015671907458454e-05,-1.9725381207535975e-05,4.6523535274900496e-05
-2.152578963432461e-05,1.7713196939439513e-05,-1.879245974123478e-05,4.8855479690246284e-05
-2.1289959477144293e-05,1.4704623936268035e-05,-1.752494790707715e-05,5.3506366384681314e-05
-2.5530132916173898e-05,1.642356983211357e-05,-1.5372892448795028e-05,5.801896259072237e-05
-2.907911220972892e-05,2.2043785065761767e-05,-1.3766081792709883e-05,6.1020939028821886e-05
-2.9547469239332713e-05,2.7019335902878083e-05,-1.3656574992637616e-05,5.8171113778371364e-05
-2.8794847821700387e-05,2.7396928999223746e-05,-1.4176172044244595e-05,5.139424683875404e-05
-3.0361843528226018e-05,2.3123737264540978e-05,-1.329536007688148e-05,4.629660179489292e-05
-3.270409069955349e-05,1.981251079996582e-05,-1.3430826584226452e-05,4.520842048805207e-05
-3.242449747631326e-05,2.4764985937508754e-05,-1.4725605069543235e-05,4.416439332999289e-05
-2.926749766629655e-05,2.8771906727342866e-05,-1.1167809134349227e-05,4.445697049959563e-05
-2.7485895770951174e-05,3.139408727292903e-05,-6.018899966875324e-06,4.8177415010286495e-05
-3.062230098294094e-05,3.339900285936892e-05,-4.019408606836805e-06,5.141927249496803e-05
-3.368990292074159e-05,3.626085162977688e-05,-7.001280664553633e-06,5.368181882658973e-05
-3.346188896102831e-05,3.561697667464614e-05,-1.2076222446921747e-05,5.93555232626386e-05
-2.902558662754018e-05,3.0923314625397325e-05,-1.3293091797095258e-05,6.243376265047118e-05
-2.8665641366387717e-05,3.105251016677357e-05,-7.666029887332115e-06,5.989690180285834e-05
-3.362768984516151e-05,3.5138211387675256e-05,-2.9523796456487617e-06,5.784909080830403e-05
-3.2096995710162446e-05,3.4391912777209654e-05,-5.3013613978691865e-06,5.5678116041235626e-05
-2.4449793272651732e-05,3.5633129300549626e-05,-1.1443073162809014e-05,5.609127038042061e-05
-2.070858135994058e-05,3.9348142308881506e-05,-1.2982485714019276e-05,6.049584408174269e-05
-2.1096040654811077e-05,3.9172879041871056e-05,-8.056466867856216e-06,6.84399128658697e-05
-2.275127189932391e-05,4.1091436287388206e-05,-7.55374367145123e-06,7.362043106695637e-05
-2.547118674556259e-05,4.508440542849712e-05,-1.0814962479344103e-05,6.89669614075683e-05
-2.476635381754022e-05,4.365605491329916e-05,-1.4751675735169556e-05,6.209834828041494e-05
-2.4899107302189805e-05,3.853132147924043e-05,-1.732002419885248e-05,5.9428894019220024e-05
-2.6770438125822693e-05,3.769167233258486e-05,-1.5793348211445846e-05,5.6631342886248603e-05
-2.7964259061263874e-05,3.8087611756054685e-05,-1.2111504474887624e-05,5.248220622888766e-05
-2.8280486731091514e-05,3.6883844586554915e-05,-1.0215746442554519e-05,4.9714846682036296e-05
-2.8932328859809786e-05,3.56265991285909e-05,-1.5747511497465894e-05,4.962274761055596e-05
-3.0283821615739726e-05,3.438050043769181e-05,-2.3916911231935956e-05,5.282715574139729e-05
-2.8732389182550833e-05,3.188374103046954e-05,-2.810854493873194e-05,5.813906682305969e-05
-2.5343137167510577e-05,2.9102488042553887e-05,-2.733752080530394e-05,5.9857778978766873e-05
-2.2686048396280967e-05,2.7056263206759468e-05,-2.3112455892260186e-05,5.8472418459132314e-05
-2.3830290956539102e-05,2.582999695732724e-05,-1.6563324606977403e-05,5.628254439216107e-05
-2.7291263904771768e-05,2.3719279852230102e-05,-1.052305378834717e-05,5.326117025106214e-05
-2.8156049665994942e-05,2.3141394194681197e-05,-7.318122698052321e-06,5.261185287963599e-05
-2.6540239559835754e-05,2.7133635740028694e-05,-6.977208613534458e-06,5.376293484005146e-05
-2.757432230282575e-05,3.344950528116897e-05,-8.285403055197094e-06,5.484645953401923e-05
-2.9970924515509978e-05,3.370222475496121e-05,-8.461119250569027e-06,5.612819586531259e-05
-3.130866389255971e-05,2.509093246771954e-05,-5.312639586918522e-06,6.0849728470202535e-05
-3.4261531254742295e-05,2.0883304387098178e-05,-3.5441312320472207e-06,6.535969441756606e-05
-3.082634066231549e-05,2.4534529075026512e-05,-7.84432177169947e-06,6.612603465327993e-05
-2.6586101739667356e-05,2.510193553462159e-05,-8.298859938804526e-06,6.447581836255267e-05
-2.718554242164828e-05,2.80802087218035e-05,-7.0001410676923115e-06,6.38928686385043e-05
-2.8631848181248643e-05,3.1874998967396095e-05,-8.74291617947165e-06,6.379358819685876e-05
-2.92656259262003e-05,2.6729496312327683e-05,-7.3622018135210965e-06,6.152235437184572e-05
-2.621329258545302e-05,1.8284257748746313e-05,-4.907526999886613e-06,6.0605339967878535e-05
-2.533644510549493e-05,9.137270353676286e-06,-2.516113454475999e-06,6.174476584419608e-05
-2.3608818082720973e-05,5.2470131777226925e-06,-2.651481963766855e-06,6.449095963034779e-05
-2.5006369469338097e-05,6.018583007971756e-06,-4.306254140828969e-06,6.935503915883601e-05
-2.8428788937162608e-05,4.558335604087915e-06,-6.384530934155919e-06,7.493294106097892e-05
-2.9857752451789565e-05,1.3560418210545322e-06,-8.015592356969137e-06,7.433669088641182e-05
-2.8899203243781812e-05,2.302675738974358e-06,-8.327519935846794e-06,6.967895751586184e-05
-2.61785535258241e-05,9.012504960992374e-06,-9.258485079044476e-06,6.91085442667827e-05
-2.503815630916506e-05,1.3890964510210324e-05,-8.07173546490958e-06,7.378292502835393e-05
-2.8314740120549686e-05,1.3656214832735714e-05,-3.725731403392274e-06,7.878128963056952e-05
-3.5364875657251105e-05,1.1540760169737041e-05,-2.2555623147013648e-08,8.065079600783065e-05
-4.0447637729812413e-05,1.2556966794363689e-05,4.781534812536847e-07,7.976774941198528e-05
-4.080363942193799e-05,1.4772836038901005e-05,-4.402701563321898e-07,7.646364974789321e-05
-3.532448681653477e-05,1.572910332470201e-05,-2.0326601770648267e-06,7.232341886265203e-05
-2.7306155971018597e-05,1.4362317415361758e-05,-4.794553660758538e-06,6.735751958331093e-05
-2.1920570361544378e-05,1.5596950106555596e-05,-6.867531283205608e-06,6.299529923126101e-05
-2.3071663235896267e-05,2.1389152607298456e-05,-5.763271929026814e-06,5.8580921177053824e-05
-2.6952182452077977e-05,2.6618805350153707e-05,-3.994969574705465e-06,5.610645894194022e-05
-2.8318023396423087e-05,2.673003291420173e-05,-1.2824855275539448e-06,5.731255077989772e-05
-2.7247633624938317e-05,2.175002737203613e-05,2.441015283238812e-07,6.095709613873623e-05
-2.8782802473870106e-05,1.721479566185735e-05,-3.1971983389667002e-06,6.178959301905707e-05
-2.9260832889121957e-05,1.51662452481105e-05,-8.479566531605087e-06,6.0514699725899845e-05
-3.0302864615805447e-05,1.7354777810396627e-05,-1.0955137440760154e-05,6.0959457186982036e-05
-3.2420528441434726e-05,2.147760460502468e-05,-9.518246770312544e-06,6.088300870032981e-05
-3.260577796027064e-05,2.4096043489407748e-05,-7.961963092384394e-06,5.9922560467384756e-05
-2.9978566089994274e-05,2.4651119019836187e-05,-9.477013009018265e-06,5.8109981182496995e-05
-2.6714611522038467e-05,2.8303345970925875e-05,-1.1737584827642422e-05,5.8665482356445864e-05
-2.547964504628908e-05,3.3220192563021556e-05,-1.3997322639625054e-05,5.733303623856045e-05
-2.4209823095588945e-05,2.773121013888158e-05,-1.3333069546206389e-05,5.3003128414275125e-05
-2.253907405247446e-05,2.288845462317113e-05,-1.2199688171676826e-05,4.798105874215253e-05
-2.1120047676959075e-05,2.721183409448713e-05,-7.726496733084787e-06,4.478618211578578e-05
-2.1616975573124364e-05,3.3788375731091946e-05,-1.999387222895166e-06,4.5719294575974345e-05
-2.1624307919410057e-05,3.801932689384557e-05,-1.7844973854153068e-06,4.8874178901314735e-05
-1.941791742865462e-05,3.5962955735158175e-05,-2.210350430686958e-06,4.988237196812406e-05
-1.7448199287173338e-05,2.9243881726870313e-05,-3.1072729598236037e-06,4.817099033971317e-05
-1.7438645954825915e-05,2.4954875698313117e-05,-5.085916200187057e-06,4.675421951105818e-05
-1.8874690795200877e-05,2.631144343467895e-05,-6.83263351675123e-06,4.530445221462287e-05
-2.2370795704773627e-05,2.5499919502181e-05,-6.342886081256438e-06,4.458120747585781e-05
-2.575073995103594e-05,1.7821901565184817e-05,-8.157637239492033e-06,4.554487532004714e-05
-2.477551970514469e-05,8.071333468251396e-06,-1.1324517799948808e-05,4.629982868209481e-05
-2.0731882614200003e-05,6.048463546903804e-06,-1.141755456046667e-05,4.6792705688858405e-05
-2.096272146445699e-05,1.3974953617434949e-05,-1.055627035384532e-05,4.898474435321987e-05
-2.4910104912123643e-05,2.250808393000625e-05,-1.2785577382601332e-05,4.941786755807698e-05
-2.6153296857955866e-05,2.4489110728609376e-05,-1.548074942547828e-05,4.9674406909616664e-05
-2.575370490376372e-05,2.818560642481316e-05,-1.4875250599288847e-05,5.134067760081962e-05
-2.739320188993588e-05,3.828156695817597e-05,-1.2264737961231731e-05,5.271898044156842e-05
-2.952187969640363e-05,3.8523150578839704e-05,-1.0588082659523934e-05,5.675289503415115e-05
-2.8191343517391942e-05,2.887793380068615e-05,-1.0973883945553098e-05,6.005789327900857e-05
-2.6962256015394814e-05,2.2924439690541476e-05,-1.2091938515368383e-05,6.137286982266232e-05
-2.824275361490436e-05,2.3285059796762653e-05,-1.2377562597976066e-05,6.468089850386605e-05
-2.7338313884683885e-05,2.5390880182385445e-05,-1.2446626897144597e-05,6.268059223657474e-05
-2.6565756343188696e-05,2.9221024306025356e-05,-1.53345572471153e-05,5.745119779021479e-05
-2.9089120289427228e-05,3.1000545277493075e-05,-1.8277380149811506e-05,5.4738753533456475e-05
-2.9434746465994976e-05,2.4966006094473414e-05,-1.9844932467094623e-05,5.066299490863457e-05
-2.5976120014092885e-05,2.237325497844722e-05,-2.233958730357699e-05,4.547260687104426e-05
-2.449573548801709e-05,2.1309524527168833e-05,-2.2157217244966887e-05,4.66973906441126e-05
-2.412877256574575e-05,2.538012086006347e-05,-1.9613209587987512e-05,5.511577182915062e-05
-2.5202903998433612e-05,3.211203875252977e-05,-1.6953747035586275e-05,6.20846840320155e-05
-2.7064012101618573e-05,3.203891537850723e-05,-1.5118064766284078e-05,6.337280501611531e-05
-2.7500978831085376e-05,2.764127748378087e-05,-1.2980306564713828e-05,6.147236854303628e-05
-2.5486624508630484e-05,2.5375902623636648e-05,-9.80616005108459e-06,5.816900375066325e-05
-2.2822503524366766e-05,2.568116360635031e-05,-8.558310582884587e-06,5.812987365061417e-05
-2.1272991943988018e-05,2.5623183319112286e-05,-1.1714023457898293e-05,6.430219946196303e-05
-1.9467785023152828e-05,2.7622239940683357e-05,-1.5246314433170483e-05,7.132285099942237e-05
-1.68050446518464e-05,2.9727380024269223e-05,-1.3512601981346961e-05,7.497916521970183e-05
-1.4453904441324994e-05,3.303934136056341e-05,-9.62232570600463e-06,7.506940164603293e-05
-1.6338266505044885e-05,3.504618871374987e-05,-9.061784112418536e-06,7.166687282733619e-05
-2.2024463760317303e-05,3.491081952233799e-05,-1.2405641427903902e-05,6.645420216955245e-05
-2.8099335395381786e-05,3.5453951568342745e-05,-1.4056358850211836e-05,6.299351662164554e-05
-3.20478793582879e-05,3.8001249777153134e-05,-1.4900693713570945e-05,6.47433043923229e-05
-3.250084046158008e-05,3.787083551287651e-05,-1.526683809061069e-05,7.302738958969712e-05
-3.127617310383357e-05,3.574533184291795e-05,-1.321951458521653e-05,7.725599425612018e-05
-3.174072480760515e-05,3.134987855446525e-05,-1.219782279804349e-05,7.156820356613025e-05
-3.0693059670738876e-05,2.4960465452750213e-05,-1.1778402949857991e-05,6.339090032270178e-05
-2.763204975053668e-05,1.5726142009953037e-05,-9.785962902242318e-06,6.403874431271106e-05
-2.494594627933111e-05,1.145305395766627e-05,-5.63235971640097e-06,7.135467603802681e-05
-2.1590296455542557e-05,1.745963527355343e-05,-1.3746869171882281e-06,7.340575393754989e-05
-2.160908843507059e-05,2.4774610210442916e-05,-1.0305888054062962e-06,7.105507393134758e-05
-2.4700686481082812e-05,2.3482101823901758e-05,-2.603518396426807e-06,6.860327266622335e-05
-2.3500802853959613e-05,1.778786099748686e-05,-4.493984306463972e-06,6.489393126685172e-05
-2.1336461941245943e-05,1.8856744645745493e-05,-5.679337391484296e-06,6.170243432279676e-05
-2.4003338694456033e-05,2.9005470423726365e-05,-5.439176675281487e-06,6.055967605789192e-05
-2.7031070203520358e-05,3.752596603590064e-05,-7.571959486085689e-06,6.155126902740449e-05
-2.4212306016124785e-05,3.359490801813081e-05,-1.4954081962059718e-05,6.688301073154435e-05
-2.09370264201425e-05,2.624444277898874e-05,-2.0396613763296045e-05,7.303118036361411e-05
-2.0137666069786064e-05,1.8718956198426895e-05,-1.9721790522453375e-05,7.426417869282886e-05
-2.2692815036862157e-05,1.5351577530964278e-05,-1.3495512575900648e-05,7.220741099445149e-05
-2.6114043066627346e-05,1.634690306673292e-05,-6.380530976457521e-06,6.669767753919587e-05
-2.796495391521603e-05,1.8393577192910016e-05,-4.503176569414791e-06,5.951244384050369e-05
-2.7548599973670207e-05,1.846365921664983e-05,-8.205047379306052e-06,5.446099748951383e-05
-2.654978379723616e-05,1.6543226593057625e-05,-1.3221051631262526e-05,5.194084224058315e-05
-2.9400045605143532e-05,1.506099579273723e-05,-1.59418868861394e-05,5.305032027536072e-05
-3.3524764148751274e-05,1.56394271471072e-05,-1.5587622328894213e-05,5.617020360659808e-05
-3.640410795924254e-05,1.9581711967475712e-05,-1.3359156582737342e-05,5.619181683869101e-05
-3.903396282112226e-05,2.0738476450787857e-05,-1.1804218956967816e-05,5.254698407952674e-05
-3.9762155211064965e-05,1.925509059219621e-05,-8.61540775076719e-06,5.009730375604704e-05
-3.5280525480629876e-05,1.9086261090706103e-05,-2.8042188660037937e-06,4.987602005712688e-05
-3.210973591194488e-05,2.1310110241756774e-05,2.4034134185058065e-06,4.9704540288075805e-05
-3.268962609581649e-05,2.2963416995480657e-05,6.299930532804865e-07,4.9516129365656525e-05
-3.377718530828133e-05,2.219772431999445e-05,-3.466808948360267e-06,5.115308886161074e-05
-3.0917708500055596e-05,2.4056720576481894e-05,-3.2827852010086644e-06,5.4705153161194175e-05
-2.7269774363958277e-05,2.9203001759015024e-05,-3.4846761991502717e-06,5.544106170418672e-05
-2.681005389604252e-05,3.0451308703050017e-05,-4.495856956054922e-06,5.192064054426737e-05
-2.7183796191820875e-05,2.6281668397132307e-05,-2.529183575461502e-06,5.0641428970266134e-05
-2.2773061573388986e-05,2.3541730115539394e-05,-1.9204048840038013e-06,5.2118430176051334e-05
-1.695809442026075e-05,2.1688716515200213e-05,-4.233028448652476e-06,5.5174543376779184e-05
-1.53848814079538e-05,2.0354113075882196e-05,-3.6216372336639324e-06,5.569612039835192e-05
-1.575794885866344e-05,1.4048335287952796e-05,-1.9670958408823935e-06,5.272000271361321e-05
-1.8366064978181385e-05,6.075190867704805e-06,-1.2589119933181792e-06,5.077500827610493e-05
-1.9685183360707015e-05,6.648351700277999e-06,-2.886597485485254e-06,5.0082213419955224e-05
-2.1031813957961276e-05,1.5472625818802044e-05,-9.042377314472105e-06,5.152901212568395e-05
-2.2378788344212808e-05,2.4476768885506317e-05,-1.4327833014249336e-05,5.2677656640298665e-05
-2.124027014360763e-05,2.4891965949791484e-05,-1.93310588656459e-05,5.301437704474665e-05
-1.9051451090490445e-05,2.437356670270674e-05,-2.0975436200387776e-05,5.454191705211997e-05
-1.85619319381658e-05,2.550073440943379e-05,-1.822827289288398e-05,5.503299689735286e-05
-2.2271562556852587e-05,2.7422120183473453e-05,-1.2883707313449122e-05,5.312548455549404e-05
-2.3936408979352564e-05,2.0883948309347034e-05,-9.264016625820659e-06,5.164853064343333e-05
-2.1719832147937268e-05,1.3684770237887278e-05,-9.739648703543935e-06,5.175670958124101e-05
-2.1482343072420917e-05,1.5633720977348275e-05,-1.1369471394573338e-05,5.214415068621747e-05
-2.368994137214031e-05,2.0053914340678602e-05,-1.320639785262756e-05,5.353768210625276e-05
-2.5260165784857236e-05,2.0883575416519307e-05,-1.5456851542694494e-05,5.196448910282925e-05
-2.650903297762852e-05,2.3765411242493428e-05,-1.6685549780959263e-05,4.6927791117923334e-05
-2.810099431371782e-05,2.8557014957186766e-05,-1.5890667782514356e-05,4.5828273869119585e-05
-3.0185845389496535e-05,2.73994191957172e-05,-1.5987643564585596e-05,4.895314123132266e-05
-3.19874488923233e-05,1.9130753571516834e-05,-1.8360075046075508e-05,5.005119237466715e-05
-3.1786035833647475e-05,1.0111774827237241e-05,-2.3730546672595665e-05,4.7031426220200956e-05
-2.7914447855437174e-05,1.380549838359002e-05,-2.6063591576530598e-05,4.42667915194761e-05
-2.4548044166294858e-05,1.672384860285092e-05,-2.0856361516052857e-05,4.787535726791248e-05
-2.5291641577496193e-05,1.1078295756306034e-05,-1.1348713087500073e-05,5.5380303820129484e-05
-2.3520835384260863e-05,1.106533090933226e-05,-6.170058441057336e-06,6.163451325846836e-05
-1.826395237003453e-05,1.6935546227614395e-05,-6.79318463880918e-06,6.164429942145944e-05
-1.3520771972252987e-05,2.1696334442822263e-05,-9.203318768413737e-06,5.676364526152611e-05
-1.2366864211799111e-05,2.4036238755797967e-05,-1.0278853551426437e-05,5.598816278507002e-05
-1.7366446627420373e-05,2.1270379875204526e-05,-8.397558303840924e-06,6.100219616200775e-05
-2.4690110876690596e-05,2.1975916752126068e-05,-5.979172328807181e-06,6.686430424451828e-05
-2.8243543056305498e-05,2.806955853884574e-05,-5.063808657723712e-06,6.853610830148682e-05
-3.0467543183476664e-05,3.4177872294094414e-05,-5.253594281384721e-06,6.88630243530497e-05
-2.9854700187570415e-05,3.326434671180323e-05,-6.710428806400159e-06,6.985368963796645e-05
-2.520334965083748e-05,2.7827332814922556e-05,-8.215544767153915e-06,7.201367407105863e-05
-2.1388126697274856e-05,2.4095990738715045e-05,-8.412991519435309e-06,7.24907367839478e-05
-2.1710549845010974e-05,2.856061837519519e-05,-6.146799478301546e-06,7.211919728433713e-05
-2.4474304154864512e-05,3.741879845620133e-05,-4.89420290250564e-06,7.189185998868197e-05
-2.4968469006125815e-05,4.002931382274255e-05,-6.121584192442242e-06,6.88851869199425e-05
-2.4704231691430323e-05,3.6706955143017694e-05,-9.51520814851392e-06,6.379409023793414e-05
-2.5768282284843735e-05,3.095807915087789e-05,-1.1597479897318408e-05,6.019407737767324e-05
-2.71857588813873e-05,2.7496149414218962e-05,-1.1543902473931666e-05,5.996894105919637e-05
-2.708425745368004e-05,2.5725510568008758e-05,-1.3624281564261764e-05,6.173919973662123e-05
-2.791860060824547e-05,2.4022629077080637e-05,-1.808190245355945e-05,6.448887143051252e-05
-3.102133996435441e-05,2.1300220396369696e-05,-2.0453664546948858e-05,6.490510713774711e-05
-3.34212563757319e-05,1.7874923287308775e-05,-1.8578371964395046e-05,6.086866051191464e-05
-3.2570736948400736e-05,1.51014037328423e-05,-1.5694960893597454e-05,5.6425018556183204e-05
-2.9865657779737376e-05,1.6003226846805774e-05,-1.5109028026927263e-05,5.846959902555682e-05
-2.917863275797572e-05,2.03604249691125e-05,-1.863079705799464e-05,6.506857607746497e-05
-3.121578993159346e-05,2.497664354450535e-05,-2.042566666204948e-05,6.599337211810052e-05
-3.2829848350957036e-05,2.0811747162952088e-05,-1.6067104297690094e-05,6.014305472490378e-05
-3.4862299798987806e-05,1.3845700777892489e-05,-1.219933619722724e-05,5.969565609120764e-05
-3.464312612777576e-05,1.962176429515239e-05,-1.1362065379216801e-05,6.385999586200342e-05
-2.9306564101716504e-05,3.072477920795791e-05,-8.254325621237513e-06,6.606023816857487e-05
-2.2967175027588382e-05,3.2201096473727375e-05,-2.3554539438919164e-06,6.121898331912234e-05
-1.852537207014393e-05,2.8143693270976655e-05,-2.5962335712392814e-06,5.589849752141163e-05
-1.629530561331194e-05,2.6306684958399273e-05,-7.245151209644973e-06,5.768042683484964e-05
-1.4135208402876742e-05,2.8670514438999817e-05,-8.828995305520948e-06,6.060534360585734e-05
-1.5610046830261126e-05,3.119411485386081e-05,-1.2708725989796221e-05,5.8358520618639886e-05
-1.890574822027702e-05,2.7917465558857657e-05,-1.4726229892403353e-05,5.622903336188756e-05
-2.11024143936811e-05,2.2711497877025977e-05,-1.4088614079810213e-05,5.6931032304419205e-05
-2.1914695025770925e-05,2.3741033146507107e-05,-1.1467574950074777e-05,5.5647982662776485e-05
-2.097258038702421e-05,2.975502866320312e-05,-1.0020424269896466e-05,5.424237315310165e-05
-2.1226862372714095e-05,3.0079809221206233e-05,-9.168568794848397e-06,5.134247476235032e-05
-2.250866782560479e-05,2.7034793674829416e-05,-7.874724360590335e-06,5.0847789680119604e-05
-2.381573176535312e-05,2.8692655178019777e-05,-2.564792112025316e-06,5.1544739108067006e-05
-2.568824857007712e-05,3.246279084123671e-05,5.055878318671603e-06,5.336385584087111e-05
-2.7184818463865668e-05,3.667235796456225e-05,8.468808118777815e-06,5.2635099564213306e-05
-2.5665534849395044e-05,4.028747935080901e-05,5.4659117267874535e-06,4.895210440736264e-05
-2.2093759980634786e-05,4.04757956857793e-05,-2.2873077796248253e-06,4.6567703975597396e-05
-1.9307206457597204e-05,3.827478940365836e-05,-8.954638360592071e-06,4.929010901832953e-05
-1.8176642697653733e-05,3.832450966001488e-05,-1.324703680438688e-05,5.52527308173012e-05
-1.8680990251596086e-05,3.892037057084963e-05,-1.340081053058384e-05,5.8492594689596444e-05
-2.1253061277093366e-05,3.561792254913598e-05,-1.261777742911363e-05,5.807989873574115e-05
-2.468582351866644e-05,3.012472552654799e-05,-1.293220975639997e-05,5.573838279815391e-05
-2.620242230477743e-05,2.8709117032121867e-05,-1.4584737073164433e-05,5.433434125734493e-05
-2.4612785637145862e-05,3.364067742950283e-05,-1.5558352970401756e-05,5.297084499034099e-05
-2.348578709643334e-05,3.568314787116833e-05,-1.7033820768119767e-05,5.306278035277501e-05
-2.1494333850569092e-05,3.42730236297939e-05,-1.7146026948466897e-05,5.57751591259148e-05
-2.023378874582704e-05,3.514230775181204e-05,-1.6480684280395508e-05,6.255310290725902e-05
-1.895692548714578e-05,3.8791167753515765e-05,-1.756651181494817e-05,6.329264579107985e-05
-1.6393158148275688e-05,4.355251439847052e-05,-1.4668002222606447e-05,5.653930566040799e-05
-2.054786091321148e-05,3.8057940400904045e-05,-1.261445322597865e-05,5.501928899320774e-05
-2.5237655790988356e-05,2.5845834898063913e-05,-1.5579780665575527e-05,6.288034637691453e-05
-2.685750041564461e-05,2.0805267922696657e-05,-1.3217312698543537e-05,7.026241655694321e-05
-2.8220301828696392e-05,2.0121477064094506e-05,-4.7375929170812014e-06,6.947013753233477e-05
-3.011126500496175e-05,1.7255641068913974e-05,7.125253773665463e-07,6.52939488645643e-05
-3.1452444090973586e-05,1.378747674607439e-05,-2.927437662947341e-06,6.280744855757803e-05
-3.288144216639921e-05,1.3794261576549616e-05,-6.982540071476251e-06,6.28347770543769e-05
-3.4084801882272586e-05,1.3876368939236272e-05,-8.860477464622818e-06,6.509984814329073e-05
-3.17658887070138e-05,1.1603520761127584e-05,-9.040842087415513e-06,6.720933015458286e-05
-2.9910939701949246e-05,9.979263268178329e-06,-6.164043952594511e-06,6.8706925958395e-05
-3.253189424867742e-05,1.1444588380982168e-05,-9.191032290800649e-07,6.737752846674994e-05
-3.5975401260657236e-05,1.0286754331900738e-05,4.983668304703315e-07,6.501234020106494e-05
-3.352983912918717e-05,4.601905402523698e-06,-2.6852624159801053e-06,6.26695400569588e-05
-3.1223342375596985e-05,7.184707442320359e-07,-5.824094387207879e-06,5.8740035456139594e-05
-3.439618012635037e-05,4.829460976907285e-06,-6.8533458943420555e-06,5.656760185956955e-05
-3.8298123399727046e-05,1.3199050044931937e-05,-4.424117378221126e-06,5.82653701712843e-05
-3.751642725546844e-05,1.801695179892704e-05,-2.4622277123853564e-06,6.226696132216603e-05
-3.423191446927376e-05,1.6808242435217835e-05,-4.914357759844279e-06,6.242864765226841e-05
-3.3304979297099635e-05,1.4956192899262533e-05,-1.0512972039578017e-05,5.7169672800228e-05
-3.655375985545106e-05,1.9274966689408757e-05,-1.3864823813491967e-05,5.404334660852328e-05
-4.0446997445542365e-05,2.8129939892096445e-05,-1.565596176078543e-05,5.273956048768014e-05
-4.063283631694503e-05,3.574750735424459e-05,-1.638299181649927e-05,4.812054248759523e-05
-3.960543836001307e-05,3.253402610425837e-05,-1.705855356703978e-05,4.663797881221399e-05
-3.944046693504788e-05,1.9316898033139296e-05,-1.559482916491106e-05,5.052969208918512e-05
-3.7271187466103584e-05,1.3985999430587981e-05,-1.1883102160936687e-05,5.45708135177847e-05
-2.973666414618492e-05,1.9124870959785767e-05,-7.854313480493147e-06,5.2548377425409853e-05
-2.399326149316039e-05,2.2806303604738787e-05,-5.947736553935101e-06,4.772622560267337e-05
-2.5468654712312855e-05,1.9342563973623328e-05,-8.236953362938948e-06,4.7435041778953746e-05
-2.8586502594407648e-05,9.813818905968219e-06,-1.2065818737028167e-05,5.116299507790245e-05
-2.984036473208107e-05,4.733930381917162e-06,-1.1383065611880738e-05,5.64472284168005e-05
-2.4907316401368007e-05,8.47207320475718e-06,-7.2630018621566705e-06,5.799997234134935e-05
-1.989361408050172e-05,1.5781235561007634e-05,-4.269249984645285e-06,5.573444286710583e-05
-1.973445432668086e-05,1.5965528291417286e-05,-6.305237093329197e-06,5.6343396863667294e-05
-1.969223922060337e-05,1.0283422852808144e-05,-1.1293558600300457e-05,5.6763674365356565e-05
-1.9903471184079535e-05,6.862255759187974e-06,-1.3965499420010019e-05,5.4943549912422895e-05
-2.008615410886705e-05,9.114258318732027e-06,-1.2529258128779475e-05,5.370326107367873e-05
-1.885892379505094e-05,1.5094384252734017e-05,-1.214607254951261e-05,5.130299905431457e-05
-1.4137093785393517e-05,2.0377303371788003e-05,-1.4319095498649403e-05,5.091460479889065e-05
-1.2334282473602798e-05,2.2516926037496887e-05,-1.6604373740847223e-05,5.392902676248923e-05
-1.8258415366290137e-05,2.0251762180123478e-05,-1.4590444152418058e-05,5.479840183397755e-05
-2.6376641471870244e-05,1.7236989151570015e-05,-1.0950551768473815e-05,5.3969884902471676e-05
-2.8038668460794725e-05,2.0054421838722192e-05,-1.2308471013966482e-05,5.4500920668942854e-05
-2.5640381863922812e-05,2.8612699679797515e-05,-1.6506501197000034e-05,5.8337631344329566e-05
-2.546976975281723e-05,3.557160380296409e-05,-1.5931922462186776e-05,6.412623770302162e-05
-2.7429427063907497e-05,3.7711452023359016e-05,-1.0371718417445663e-05,6.540425238199532e-05
-2.898832826758735e-05,3.8644036976620555e-05,-7.2817988439055625e-06,6.05441236984916e-05
-3.089392339461483e-05,3.8930895243538544e-05,-8.97764039109461e-06,5.701244663214311e-05
-3.293959525763057e-05,3.516365177347325e-05,-1.3072202818875667e-05,5.633358523482457e-05
-3.114749779342674e-05,3.174581433995627e-05,-1.3713005500903819e-05,5.4234951676335186e-05
-2.4869750632205978e-05,3.4293301723664626e-05,-1.2791621884389315e-05,5.352313019102439e-05
-2.1979956727591343e-05,4.1664676246000454e-05,-9.666815458331257e-06,5.354258610168472e-05
-2.729937114054337e-05,3.846972686005756e-05,-7.620965789101319e-06,5.324105586623773e-05
-3.3796372008509934e-05,2.791460974549409e-05,-8.945234185375739e-06,5.7790173741523176e-05
-3.48982575815171e-05,2.9676677513634786e-05,-9.17327452043537e-06,6.143400969449431e-05
-3.269779699621722e-05,3.3575724955881014e-05,-7.900795026216656e-06,6.397750257747248e-05
-3.463464599917643e-05,2.951446185761597e-05,-6.906917860760586e-06,6.829440098954365e-05
-3.645419201347977e-05,2.7278818379272707e-05,-7.879647455411032e-06,6.906711496412754e-05
-3.767867019632831e-05,2.8249281967873685e-05,-9.51918354985537e-06,6.355874938890338e-05
-3.779231337830424e-05,2.361813858442474e-05,-8.331632670888212e-06,5.670056270901114e-05
-3.448548523010686e-05,1.8344631826039404e-05,-7.434284725604812e-06,5.53116224182304e-05
-3.0578830774175e-05,1.8657245163922198e-05,-7.632379492861219e-06,5.4734598961658776e-05
-2.9282109608175233e-05,2.0201805455144495e-05,-8.271445040008985e-06,5.2492025133688e-05
-3.311538966954686e-05,2.1097055650898255e-05,-8.963654181570746e-06,4.906582034891471e-05
-3.507648580125533e-05,1.7983898942475207e-05,-9.025179679156281e-06,5.0114922487409785e-05
-3.248220309615135e-05,1.1619545148278121e-05,-9.416173270437866e-06,5.5877648264868185e-05
-2.7835965738631785e-05,6.167554602143355e-06,-1.1197844287380576e-05,6.321726687019691e-05
-2.472563210176304e-05,6.522184776258655e-06,-1.1850637747556902e-05,6.68403081363067e-05
-2.4495122488588095e-05,1.1537093996594194e-05,-9.48020169744268e-06,6.597215542569757e-05
-2.3693601178820245e-05,1.75326695170952e-05,-7.925405952846631e-06,6.434442184399813e-05
-2.149299325537868e-05,2.0537499949568883e-05,-5.928150585532421e-06,6.228078564163297e-05
-1.9458384485915303e-05,1.8935201296699233e-05,-3.1008239602670074e-06,6.144291546661407e-05
-1.8850309061235748e-05,1.876305577752646e-05,-2.320856538062799e-06,6.249545549508184e-05
-2.012327968259342e-05,2.401570964138955e-05,-3.743735760508571e-06,6.395117816282436e-05
-2.1461155483848415e-05,2.7481606593937613e-05,-5.845277428306872e-06,6.35030519333668e-05
-1.9734252418857068e-05,2.554524689912796e-05,-8.645270099805202e-06,6.378112448146567e-05
-1.6905643860809505e-05,2.5006045689224266e-05,-1.0842064511962235e-05,6.640460924245417e-05
-1.855812115536537e-05,2.634687007230241e-05,-9.950555977411568e-06,7.184333662735298e-05
-2.328755726921372e-05,2.6157491447520442e-05,-6.782564923923928e-06,7.366689533228055e-05
-2.4305398255819455e-05,2.3396883989335038e-05,-4.471687134355307e-06,6.809740443713963e-05
-2.0034154658787884e-05,3.0146160497679375e-05,-5.421077275968855e-06,5.8897861890727654e-05
-1.512328799435636e-05,4.0762937715044245e-05,-6.501272309833439e-06,5.544965461012907e-05
-1.5968202205840498e-05,4.405561776366085e-05,-9.974777640309185e-06,5.337546826922335e-05
-1.9545053874026053e-05,4.3356820242479444e-05,-1.268319374503335e-05,4.9481015594210476e-05
-2.3908265575300902e-05,3.908083454007283e-05,-9.12711038836278e-06,5.0280617870157585e-05
-2.621686326165218e-05,3.843678132398054e-05,-4.603770321409684e-06,5.239704842097126e-05
-2.3070970200933516e-05,3.9375088817905635e-05,-3.351272653162596e-06,5.452193727251142e-05
-1.9592194803408347e-05,4.4466516555985436e-05,-4.99897623740253e-06,5.567770858760923e-05
-1.7361666323267855e-05,4.860052285948768e-05,-5.032262379245367e-06,5.6146629503928125e-05
-1.6785979823907837e-05,4.393590643303469e-05,-5.3437897804542445e-06,5.501872510649264e-05
-1.751011222950183e-05,3.6828641896136105e-05,-4.911330506729428e-06,5.621724631055258e-05
-1.8154665667680092e-05,2.9446035114233382e-05,-6.815060260123573e-06,5.676876753568649e-05
-1.7949321772903204e-05,2.451485488563776e-05,-1.1111413186881691e-05,5.454674828797579e-05
-1.5867100955802016e-05,2.3297317966353148e-05,-1.5132015505514573e-05,5.4307442042045295e-05
-1.3449906873574946e-05,2.249194403702859e-05,-1.6470710761495866e-05,5.4933381761657074e-05
-1.365761363558704e-05,1.708105810394045e-05,-1.6022948329919018e-05,5.252136179478839e-05
-1.4227141036826652e-05,1.2984868590137921e-05,-1.5412028005812317e-05,4.8612317186780274e-05
-1.5046100998006295e-05,1.383216840622481e-05,-1.565998354635667e-05,4.6161636419128627e-05
-1.695996252237819e-05,1.7538115571369417e-05,-1.7025202396325767e-05,4.614093995769508e-05
-1.814557981560938e-05,1.8145192370866425e-05,-1.63600252562901e-05,5.1975250244140625e-05
-1.7283087800024077e-05,1.5856421669013798e-05,-1.538146534585394e-05,5.942747156950645e-05
-1.6678528481861576e-05,1.811325091694016e-05,-1.5732061001472175e-05,6.264426338020712e-05
-1.9951739886892028e-05,2.213725383626297e-05,-1.5861231076996773e-05,5.8406094467500225e-05
-2.609673720144201e-05,1.955461448233109e-05,-1.2019542737107258e-05,5.108376717544161e-05
-3.102742266491987e-05,1.626337325433269e-05,-9.790546755539253e-06,4.937279300065711e-05
-3.127598756691441e-05,1.5365185390692204e-05,-1.5627871107426472e-05,5.0356858992017806e-05
-2.9615763196488842e-05,1.1447478755144402e-05,-2.2145746697788127e-05,5.0983009714400396e-05
-2.516795757401269e-05,6.462577402999159e-06,-2.532381404307671e-05,5.311243876349181e-05
-1.9524468370946124e-05,4.573800197249511e-06,-2.7397634767112322e-05,5.603085082839243e-05
-2.0323050193837844e-05,8.58108342072228e-06,-2.777271220111288e-05,6.249786383705214e-05
-2.596088597783819e-05,1.3063826372672338e-05,-2.6943409466184676e-05,6.632662552874535e-05
-2.7772477551479824e-05,1.1434793123044074e-05,-2.113096161338035e-05,6.486845813924447e-05
-2.7979864171356894e-05,9.090449566429015e-06,-1.7262080291402526e-05,6.155264418339357e-05
-2.9925548005849123e-05,9.732341823109891e-06,-1.6840725947986357e-05,6.046683847671375e-05
-3.0099350624368526e-05,1.2997416888538282e-05,-1.7616273908060975e-05,6.111910624895245e-05
-2.9285243726917543e-05,2.197123467340134e-05,-1.617186535440851e-05,6.263617251534015e-05
-2.9171484129619785e-05,2.924309046647977e-05,-1.0761843441287056e-05,6.394071533577517e-05
-3.1822837627260014e-05,3.1621202651876956e-05,-6.158481028251117e-06,6.258686335058883e-05
-3.219320569769479e-05,2.946860513475258e-05,-7.0899682214076165e-06,6.128476525191218e-05
-2.8960614145034924e-05,2.430937638564501e-05,-1.0086240763484966e-05,6.249542639125139e-05
-2.6985017029801384e-05,1.8586453734315e-05,-1.0417108569527045e-05,6.462108285631984e-05
-2.9701555831707083e-05,1.6482030332554132e-05,-8.849150617606938e-06,6.271151505643502e-05
-3.413620652281679e-05,1.806552245398052e-05,-6.315348855423508e-06,5.829779547639191e-05
-3.5838380426866934e-05,2.0745525034726597e-05,-3.1880963433650322e-06,5.729201438953169e-05
-3.397091495571658e-05,2.7313773898640648e-05,5.914872076573374e-07,5.999682252877392e-05
-2.9068483854644e-05,3.5027307603741065e-05,1.185011342386133e-06,5.933948341407813e-05
-2.344789209018927e-05,3.505283166305162e-05,-1.3927342479291838e-06,5.5234271712834015e-05
-1.962071837624535e-05,3.124551585642621e-05,-4.761475793202408e-06,5.296132803778164e-05
-1.8549921151134185e-05,3.171172284055501e-05,-6.7077926360070705e-06,5.3856190788792446e-05
-2.145731014024932e-05,3.3370401069987565e-05,-9.006283107737545e-06,5.316675378708169e-05
-2.7503101591719314e-05,3.1503695936407894e-05,-1.1397230991860852e-05,5.192988464841619e-05
-2.924856380559504e-05,2.558802043495234e-05,-1.4513852875097655e-05,5.512206917046569e-05
-2.6400397473480552e-05,2.0615187168004923e-05,-1.4794202797929756e-05,6.048712020856328e-05
-2.381830199738033e-05,2.4733606551308185e-05,-1.1948974133701995e-05,6.06861176493112e-05
-2.441954165988136e-05,2.966017200378701e-05,-1.0426429071230814e-05,5.704434079234488e-05
-2.6794945370056666e-05,2.4964325348264538e-05,-6.798415142839076e-06,5.4534670198336244e-05
-3.088151788688265e-05,2.1081799786770716e-05,-2.3702070848230505e-06,5.566672552959062e-05
-3.564085636753589e-05,1.976736166398041e-05,-9.840626944424002e-07,5.678661182173528e-05
-3.634798122220673e-05,2.2585049009649083e-05,-3.0043315746297594e-06,5.7835495681501925e-05
-3.472764728940092e-05,2.5387269488419406e-05,-7.203992936410941e-06,5.935484296060167e-05
-3.513164847390726e-05,2.6015692128567025e-05,-8.720194273337256e-06,5.884356505703181e-05
-3.606187965488061e-05,2.4354805645998567e-05,-9.54793631535722e-06,5.8810259361052886e-05
-3.627771002356894e-05,2.3926919311634265e-05,-9.530958777759224e-06,5.869744927622378e-05
-3.3339227229589596e-05,2.762168151093647e-05,-9.94942820398137e-06,5.85940397286322e-05
-3.0207107556634583e-05,3.235320400563069e-05,-1.1376451766409446e-05,5.692576814908534e-05
-2.685053004825022e-05,3.718879452208057e-05,-1.171806434285827e-05,5.3479659982258454e-05
-2.360882172069978e-05,3.8289268559310585e-05,-1.2236127076903358e-05,4.9738715460989624e-05
-2.306296482856851e-05,3.676312553579919e-05,-1.4108292816672474e-05,4.9946287617785856e-05
-2.252630474686157e-05,3.213999298168346e-05,-1.5047226042952389e-05,5.2754610806005076e-05
-2.1665318854502402e-05,3.0433226129389368e-05,-1.2892867744085379e-05,5.4405776609200984e-05
-2.1542356989812106e-05,3.303708945168182e-05,-1.0178441698371898e-05,5.610185689874925e-05
-2.2512265786645003e-05,3.384370938874781e-05,-9.639868039812427e-06,5.655790664604865e-05
-2.2662250557914376e-05,2.9911019737483002e-05,-1.0244702025374863e-05,5.6862696510506794e-05
-2.280630542372819e-05,2.537011278036516e-05,-8.88958584255306e-06,5.758984843851067e-05
-2.162252894777339e-05,2.5990477297455072e-05,-6.749110525561264e-06,5.8466011978453025e-05
-2.0495670469244942e-05,2.9079761588945985e-05,-7.442102287313901e-06,5.966669777990319e-05
-2.024732566496823e-05,2.9029000870650634e-05,-1.043940574163571e-05,5.7687113439897075e-05
-1.910909850266762e-05,3.072205072385259e-05,-1.0905036106123589e-05,5.2193583542248234e-05
-1.8128457668353803e-05,2.963900078611914e-05,-9.816593774303328e-06,4.839621760766022e-05
-2.1088160792714916e-05,2.2964437448536046e-05,-9.144442628894467e-06,5.039286406827159e-05
-2.619003498693928e-05,1.8352013285038993e-05,-1.0865904187085107e-05,5.2813265938311815e-05
-2.967369982798118e-05,1.5057012205943465e-05,-9.24899632082088e-06,5.1755203458014876e-05
-2.922037492680829e-05,1.3153191503079142e-05,-2.7575626972975442e-06,5.634454282699153e-05
-2.7016441890737042e-05,1.7080768884625286e-05,5.000034661861719e-07,6.075476630940102e-05
-2.558801497798413e-05,2.4778857550700195e-05,-1.9327414975123247e-06,5.899291136302054e-05
-2.379499164817389e-05,3.2354655559174716e-05,-5.155281996849226e-06,5.875523856957443e-05
-2.302173561474774e-05,3.466189809842035e-05,-5.2645441428467166e-06,6.248955469345674e-05
-2.3907334252726287e-05,2.9641869332408533e-05,-3.4004281133093173e-06,6.562208727700636e-05
-2.655251773830969e-05,2.5205732526956126e-05,-1.109116965380963e-06,6.622484215768054e-05
-2.778453017526772e-05,2.0679286535596475e-05,9.288539217777725e-07,6.722420221194625e-05
-2.8592083253897727e-05,1.810792127798777e-05,3.0618405162385898e-06,6.698560173390433e-05
-2.9104683562763967e-05,1.7135103917098604e-05,4.432525201991666e-06,6.960300379432738e-05
-2.709107502596453e-05,1.5339699530159123e-05,2.128249889210565e-06,7.425161311402917e-05
-2.569329626567196e-05,1.4163028936309274e-05,-2.781830517051276e-06,7.595399074489251e-05
-2.5830016966210678e-05,1.4911999642208684e-05,-6.985076197452145e-06,7.186393486335874e-05
-2.5590465156710707e-05,1.5638954209862277e-05,-9.062024219019804e-06,6.458962889155373e-05
-2.5553759769536555e-05,1.3304948879522271e-05,-8.811998668534216e-06,5.8266319683752954e-05
-2.6047877327073365e-05,1.158989925897913e-05,-8.40537450130796e-06,5.6023502111202106e-05
-2.375027906964533e-05,1.200788847199874e-05,-8.488987987220753e-06,5.611056258203462e-05
-1.7120733900810592e-05,1.3430058970698155e-05,-8.241444447776303e-06,5.677043372998014e-05
-1.1113307664345484e-05,1.7102243873523548e-05,-7.151192676246865e-06,5.900057658436708e-05
-1.0422705599921755e-05,2.4770746676949784e-05,-7.2597458711243235e-06,5.946831151959486e-05
-1.1140805327158887e-05,3.139881664537825e-05,-8.429945410171058e-06,5.6429020332871005e-05
-1.1291157534287777e-05,3.291707980679348e-05,-8.669251656101551e-06,5.130451245349832e-05
-1.3193622180551756e-05,3.0220062399166636e-05,-8.854298357618973e-06,5.1299924962222576e-05
-1.708071431494318e-05,2.1879202904528938e-05,-1.155767768068472e-05,5.7340192142874e-05
-2.0565963495755568e-05,1.4415524674404878e-05,-1.398371659888653e-05,6.217852933332324e-05
-2.2900314434082247e-05,1.9441184122115374e-05,-1.5452167644980364e-05,6.452958041336387e-05
-2.53934740612749e-05,3.0547806090908125e-05,-1.4900037058396265e-05,6.472915265476331e-05
-2.8383788958308287e-05,3.31760966219008e-05,-1.1284333595540375e-05,5.868816879228689e-05
-2.8889220629935153e-05,3.047619975404814e-05,-1.1280552826065104e-05,5.372793384594843e-05
-2.6733825507108122e-05,2.7885778763447888e-05,-1.3810053133056499e-05,5.6966280681081116e-05
-2.5084169465117157e-05,2.7918747946387157e-05,-1.315366716880817e-05,6.266013951972127e-05
-2.4321707314811647e-05,3.4700595278991386e-05,-8.131451977533288e-06,6.530008249683306e-05
-2.3980266632861458e-05,3.973767161369324e-05,-4.758886007039109e-06,6.51782684144564e-05
-2.672957634786144e-05,3.927253055735491e-05,-4.226747478242032e-06,6.362051499309018e-05
-3.1711042538518086e-05,3.573359936126508e-05,-5.795164270239184e-06,6.452288653235883e-05
-3.140228727716021e-05,3.16273799398914e-05,-7.389159236481646e-06,6.633389421040192e-05
-2.8230697353137657e-05,2.6620855351211503e-05,-9.647227670939174e-06,6.386457243934274e-05
-2.6244804757880047e-05,2.280797707499005e-05,-1.2414399861881975e-05,5.930599581915885e-05
-2.739183764788322e-05,2.2627298676525243e-05,-1.1387025551812258e-05,5.677742956322618e-05
-2.8910690161865205e-05,2.312611286470201e-05,-9.225770554621704e-06,5.72422613913659e-05
-2.9456785341608338e-05,2.6459218133823015e-05,-8.045062713790685e-06,5.8596069720806554e-05
-2.7765730919782072e-05,2.9270609957166016e-05,-7.413110324705485e-06,5.728656833525747e-05
-2.5749901396920905e-05,2.9096258003846742e-05,-7.141306923585944e-06,5.392051753005944e-05
-2.6380344934295863e-05,2.7183559723198414e-05,-9.214372767019086e-06,5.1251277909614146e-05
-2.9669921786990017e-05,2.6085333956871182e-05,-1.1973708751611412e-05,5.1620583690237254e-05
-3.4845139452954754e-05,3.113068305538036e-05,-1.2812886780011468e-05,5.3252744692144915e-05
-3.766367808566429e-05,4.000731132691726e-05,-1.134020658355439e-05,5.484739085659385e-05
-3.553747228579596e-05,4.5009659515926614e-05,-1.0363476576458197e-05,5.661977411364205e-05
-3.0380439056898467e-05,4.1180013795383275e-05,-1.2838360817113426e-05,5.9325069742044434e-05
-2.6700870876084082e-05,2.9602502763736993e-05,-1.7287702576140873e-05,6.418202974600717e-05
-2.581145236035809e-05,2.201602910645306e-05,-1.9613640688476153e-05,6.666051922366023e-05
-2.7311341909808107e-05,2.183575816161465e-05,-1.923089803312905e-05,6.563661736436188e-05
-2.8956679670955054e-05,2.4289502107421868e-05,-1.7812661099014804e-05,6.125381332822144e-05
-3.0568597139790654e-05,2.3841072106733918e-05,-1.6617810615571216e-05,5.919615796301514e-05
-3.35728946083691e-05,1.5179892216110602e-05,-1.5485133189940825e-05,6.181465141708031e-05
-3.3606946090003476e-05,6.8147405727359e-06,-1.5167196579568554e-05,6.172501161927357e-05
-3.0617429729318246e-05,2.1109351564518875e-06,-1.508918921899749e-05,5.8678466302808374e-05
-3.269293301855214e-05,-8.261718562607712e-07,-1.6089661585283466e-05,5.74478690396063e-05
-3.612066575442441e-05,6.838003628217848e-06,-1.9841656467178836e-05,5.839865843881853e-05
-3.881525481119752e-05,1.5259120118571445e-05,-2.3618080376763828e-05,5.79061743337661e-05
-3.902929529431276e-05,1.5101863027666695e-05,-2.4317359930137172e-05,5.642227188218385e-05
-3.8328045775415376e-05,6.398507593985414e-06,-2.3111484551918693e-05,5.691004480468109e-05
-3.485166234895587e-05,-3.830422429018654e-06,-2.074677286145743e-05,5.9342582972021773e-05
-3.0392016924452037e-05,-6.78670687648264e-07,-1.5039273421280086e-05,6.121573824202642e-05
-3.184448723914102e-05,1.0168997505388688e-05,-9.94861784420209e-06,6.018112617311999e-05
-3.456968261161819e-05,1.7888209185912274e-05,-8.12864163890481e-06,6.05353998253122e-05
-3.222000668756664e-05,1.8870492567657493e-05,-5.4233792070590425e-06,6.254930485738441e-05
-2.8092983484384604e-05,1.87483528861776e-05,-4.02644400310237e-06,6.200091593200341e-05
-2.632799805724062e-05,1.8918643036158755e-05,-6.458984444179805e-06,6.085580389481038e-05
-2.7318385036778636e-05,2.2728059775545262e-05,-8.241475370596163e-06,6.206645048223436e-05
-3.075142376474105e-05,2.8447790100472048e-05,-7.149189059418859e-06,6.300958193605766e-05
-3.086898141191341e-05,2.744380799413193e-05,-5.985144071019022e-06,6.121792102931067e-05
-2.636911449371837e-05,2.043905078608077e-05,-8.925532711145934e-06,5.836390482727438e-05
-2.0746847440022975e-05,1.8457561964169145e-05,-1.2033412531309295e-05,5.630827945424244e-05
-1.6634145140415058e-05,2.1925252440269105e-05,-1.0114399628946558e-05,5.510804840014316e-05
-1.5667910702177323e-05,2.3817636247258633e-05,-4.855922725255368e-06,5.625763878924772e-05
-1.627576057217084e-05,2.0934241547365673e-05,-1.6177926909222151e-06,5.8813962823478505e-05
-1.4270665815274697e-05,1.542492100270465e-05,-1.274021769859246e-06,6.014876635163091e-05
-1.4363583431986626e-05,1.0897779247898143e-05,-3.289316964583122e-06,6.42331360722892e-05
-1.57419744937215e-05,9.982493793359026e-06,-6.838812169007724e-06,6.869659409858286e-05
-1.408688331139274e-05,1.4214770999387838e-05,-8.958504622569308e-06,6.748799933120608e-05
-1.5425082892761566e-05,2.1534899133257568e-05,-6.65932520860224e-06,6.435495743062347e-05
-1.899963172036223e-05,3.2919353543547913e-05,-3.2443788313685218e-06,6.163456419017166e-05
-1.9291761418571696e-05,4.303827881813049e-05,-5.086383225716418e-06,6.086470966693014e-05
-1.7862283129943535e-05,4.523737879935652e-05,-1.0837478839675896e-05,6.275789201026782e-05
-2.0359488189569674e-05,3.6487144825514406e-05,-1.3939151358499657e-05,6.312030018307269e-05
-2.4969751393655315e-05,2.6642597731552087e-05,-1.058760881278431e-05,6.153535650810227e-05
-2.2918064132682048e-05,2.7012314603780396e-05,-6.744802703906316e-06,5.8076482673641294e-05
-1.9793696992564946e-05,3.2901789381867275e-05,-5.294026777846739e-06,5.359307033359073e-05
-1.853917092375923e-05,3.271535751991905e-05,-5.005627372156596e-06,4.9661921366350725e-05
-1.9965706087532453e-05,2.9925293347332627e-05,-5.248601155471988e-06,4.814264320884831e-05
-2.0309067622292787e-05,2.7463438527774997e-05,-7.727661795797758e-06,4.86978970002383e-05
-1.8803430066327564e-05,2.810983824019786e-05,-1.159797375294147e-05,4.9828315241029486e-05
-1.7848346033133566e-05,3.318882954772562e-05,-1.3024979125475511e-05,5.036319271312095e-05
-1.7718881281325594e-05,3.85527491744142e-05,-1.4810292668698821e-05,4.9927399231819436e-05
-1.8771328541333787e-05,3.632496373029426e-05,-1.8153456039726734e-05,4.9890186346601695e-05
-1.9985651306342334e-05,2.75760921795154e-05,-1.8409253243589774e-05,5.144191891304217e-05
-1.9445405996521004e-05,2.8085252779419534e-05,-1.3141990166332107e-05,5.227439760346897e-05
-1.6759096979512833e-05,3.9700349589111283e-05,-7.601003289892105e-06,4.928126509184949e-05
-1.629684447834734e-05,4.659421756514348e-05,-5.251687980489805e-06,4.602748231263831e-05
-1.990320743061602e-05,4.063714004587382e-05,-6.81223218634841e-06,4.836868538404815e-05
-2.460038558638189e-05,3.072195977438241e-05,-1.13226669782307e-05,5.286336090648547e-05
-2.4981405658763833e-05,2.326849426026456e-05,-1.4120072592049837e-05,5.1846083806594834e-05
-2.4303695681737736e-05,2.1343306798371486e-05,-1.4043847841094248e-05,5.044068893766962e-05
-2.408381442364771e-05,1.9557657651603222e-05,-1.3677324204763863e-05,4.9843201850308105e-05
-2.461331314407289e-05,1.9469773178570904e-05,-1.2928226169606205e-05,4.6282813855214044e-05
-2.5037659725057893e-05,2.4761435270193033e-05,-1.7597825717530213e-05,4.573722253553569e-05
-2.586948721727822e-05,2.3245242118719034e-05,-2.6666573830880225e-05,4.6782748540863395e-05
-2.9981427360326052e-05,1.714532118057832e-05,-2.819163455569651e-05,4.65592929685954e-05
-3.597957038437016e-05,1.3765524272457696e-05,-2.277661769767292e-05,5.073647480458021e-05
-3.5679739085026085e-05,1.3557916645368095e-05,-1.5323885236284696e-05,5.699246685253456e-05
-3.061856477870606e-05,1.8846401871996932e-05,-1.1618752978392877e-05,6.196278991410509e-05
-2.7501218937686644e-05,2.4803992346278392e-05,-1.4386179827852175e-05,6.194039451656863e-05
-2.974287053802982e-05,2.679767567315139e-05,-1.7167603800771758e-05,6.097987716202624e-05
-3.232695962651633e-05,2.8847496650996618e-05,-1.822356898628641e-05,6.27980989520438e-05
-3.143914364045486e-05,3.275896597187966e-05,-1.849946602305863e-05,6.0733305872417986e-05
-2.9539380193455145e-05,3.0899471312295645e-05,-1.747101305227261e-05,5.669867459801026e-05
-3.155649028485641e-05,2.6662994059734046e-05,-1.368950597679941e-05,5.38819695066195e-05
-3.7631056329701096e-05,2.5954610464395955e-05,-5.85272482567234e-06,5.666093420586549e-05
-3.995728911831975e-05,2.8255031793378294e-05,1.1012052709702402e-06,6.347846647258848e-05
-3.525775173329748e-05,2.6441359295859e-05,1.1176091447850922e-06,6.86411076458171e-05
-2.8757543987012468e-05,2.1059067876194604e-05,-4.5492947720049415e-06,6.713643233524635e-05
-2.842510730260983e-05,1.7404741811333224e-05,-1.0556503184488975e-05,6.108373054303229e-05
-3.2610030757496133e-05,1.891282227006741e-05,-1.4061211913940497e-05,5.835587580804713e-05
-3.33994030370377e-05,2.366501939832233e-05,-1.4247409126255661e-05,5.867674553883262e-05
-3.0163555493345484e-05,2.678789860510733e-05,-1.2876198525191285e-05,5.881377728655934e-05
-2.9313629056559876e-05,2.9181981517467648e-05,-1.2249081919435412e-05,5.902547127334401e-05
-2.9971419280627742e-05,3.288687003077939e-05,-1.3388558727456257e-05,6.0580357967410237e-05
-2.8163749448140152e-05,3.39000289386604e-05,-1.539046934340149e-05,6.292369653237984e-05
-2.5233275664504617e-05,2.885880348912906e-05,-1.4438889593293425e-05,6.5113119489979e-05
-2.530051460780669e-05,2.26842694246443e-05,-1.0918039151874837e-05,6.199387280503288e-05
-2.629088885441888e-05,2.168020000681281e-05,-8.567616532673128e-06,5.572187001234852e-05
-2.5312085199402645e-05,2.516401764296461e-05,-5.779182174592279e-06,5.46942392247729e-05
-2.3505050194216892e-05,2.4877270334400237e-05,-3.1475467494601617e-06,5.411472375271842e-05
-2.2054695364204235e-05,2.0216009943396784e-05,-3.490273684292333e-06,5.365833203541115e-05
-1.9966695617767982e-05,1.7459069567848928e-05,-5.796682671643794e-06,5.7137280236929655e-05
-2.2662905394099653e-05,1.9455163055681624e-05,-7.498467311961576e-06,5.911084735998884e-05
-2.6748231903184205e-05,2.0650297301472165e-05,-9.31435715756379e-06,5.7737350289244205e-05
-2.5936762540368363e-05,2.2593849280383438e-05,-1.1830647054011934e-05,5.114474697620608e-05
-2.3062244508764707e-05,2.4903149096644484e-05,-1.1587794688239228e-05,4.543828617897816e-05
-2.066263186861761e-05,2.741548632911872e-05,-7.770601769152563e-06,4.7416593588422984e-05
-2.312276410521008e-05,2.782091723929625e-05,-1.7618598349145032e-06,5.357256668503396e-05
-2.7108433641842566e-05,2.8886075597256422e-05,1.1182612524862634e-06,5.6645076256245375e-05
-2.6035750124719925e-05,2.7137755751027726e-05,-3.0053581667743856e-06,5.453497215057723e-05
-2.2979887944529764e-05,2.276912891829852e-05,-9.220846550306305e-06,5.116049578646198e-05
-1.9785138647421263e-05,2.0592089640558697e-05,-1.1481536603241693e-05,5.1046932640019804e-05
-1.916363362397533e-05,2.0942383343935944e-05,-9.074126865016297e-06,5.398018402047455e-05
-2.2219150196178816e-05,2.4272336304420605e-05,-5.1894644457206596e-06,5.8124114730162546e-05
-2.4315595510415733e-05,2.6859806894208305e-05,-9.766509947439772e-07,6.131549162091687e-05
-2.6747220545075834e-05,2.6138446628465317e-05,9.742533393364283e-07,6.335025682346895e-05
-3.0708870326634496e-05,2.101889367622789e-05,1.0242711141472682e-06,6.692839815514162e-05
-3.385053787496872e-05,2.0479861632338725e-05,7.903494747552031e-07,6.928338552825153e-05
-3.30948932969477e-05,2.647210749273654e-05,7.251979639022466e-08,6.932026735739782e-05
-3.0069848435232416e-05,3.20185354212299e-05,-5.411622510109737e-07,7.208422903204337e-05
-2.6960418836097233e-05,3.4164786484325305e-05,-7.032361395431508e-07,7.746582559775561e-05
-2.5324503440060653e-05,3.3967782655963674e-05,-1.956119604074047e-06,8.02359136287123e-05
-2.42728983721463e-05,2.8088368708267808e-05,-3.978947461291682e-06,7.983652903931215e-05
-2.2225252905627713e-05,1.9742165022762492e-05,-3.89484694096609e-06,7.350347004830837e-05
-1.978667569346726e-05,1.4592039406124968e-05,-3.2475031730427872e-06,6.647440750384703e-05
-2.0151070202700794e-05,1.2602834431163501e-05,-7.12515065970365e-06,6.67417625663802e-05
-2.044307802862022e-05,1.1650779924821109e-05,-1.3221773770055734e-05,7.060014468152076e-05
-2.046328881988302e-05,1.2684457033174112e-05,-1.5615141819580458e-05,6.873326492495835e-05
-1.889263148768805e-05,1.5870102288317867e-05,-1.231955593539169e-05,6.433283851947635e-05
-1.6257785318885e-05,1.4666245988337323e-05,-6.290988949331222e-06,5.982544462312944e-05
-2.0803972802241333e-05,1.2446031178114936e-05,-5.620936917694053e-06,5.4660358728142455e-05
-2.724271143961232e-05,1.5310346498154104e-05,-6.278099135670345e-06,5.354658424039371e-05
-3.224089232389815e-05,1.9264340153313242e-05,-7.525587989221094e-06,5.9656671510310844e-05
-3.329190440126695e-05,2.4748827854637057e-05,-1.0217089766229037e-05,6.736556679243222e-05
-3.210580689483322e-05,2.943685649370309e-05,-1.0496290087758098e-05,6.717347423546016e-05
-2.9717830329900607e-05,3.080202441196889e-05,-9.574393516231794e-06,6.52443413855508e-05
-2.85957121377578e-05,3.1572220905218273e-05,-1.077845081454143e-05,6.688242865493521e-05
-3.09925562760327e-05,3.472807657090016e-05,-9.635840797272976e-06,7.008123066043481e-05
-3.1845163903199136e-05,3.381322676432319e-05,-4.507826361077605e-06,6.904936162754893e-05
-2.8851951356045902e-05,3.153822763124481e-05,2.6691598264960703e-08,6.33297604508698e-05
-2.3601796783623286e-05,3.2318755984306335e-05,-1.5587126256377815e-07,5.754081576014869e-05
-2.0840443539782427e-05,3.278701115050353e-05,-6.642425432801247e-06,5.689641329809092e-05
-2.233110717497766e-05,3.074856067541987e-05,-1.2480059012887068e-05,6.048544673831202e-05
-2.4156692234100774e-05,2.497146306268405e-05,-1.3596127246273682e-05,6.416479300241917e-05
-2.320884414075408e-05,1.7616581317270175e-05,-1.2090960808563977e-05,6.195902096806094e-05
-2.2900727344676852e-05,1.5090989109012298e-05,-1.0894686056417413e-05,5.555843381443992e-05
-2.407344254606869e-05,1.9437826267676428e-05,-8.954292752605397e-06,5.242362749413587e-05
-2.4360806492040865e-05,2.404084079898894e-05,-8.130684364004992e-06,5.321613571140915e-05
-2.1695046598324552e-05,2.163608223781921e-05,-1.1136311513837427e-05,5.451741526485421e-05
-2.1584328351309523e-05,1.4434487638936844e-05,-1.6523046724614687e-05,5.237091681919992e-05
-2.5260544134653173e-05,1.339742448180914e-05,-2.1344023480196483e-05,4.675014133681543e-05
-2.7243626391282305e-05,1.1446486496424768e-05,-2.0687853975687176e-05,4.285980685381219e-05
-2.5517778340145014e-05,1.1965494195464998e-05,-1.2517114555521403e-05,4.6068722440395504e-05
-2.520302041375544e-05,1.967331627383828e-05,-7.65646018408006e-06,5.1536422688513994e-05
-2.6632496883394197e-05,2.4031878638197668e-05,-1.1798852028732654e-05,5.5902066378621385e-05
-2.4772896722424775e-05,2.3120779587770812e-05,-1.847459679993335e-05,5.813489406136796e-05
-2.2751481083105318e-05,2.587357630545739e-05,-1.8126056602341123e-05,5.7493911299388856e-05
-2.3445991246262565e-05,2.963873885164503e-05,-1.3179823326936457e-05,5.3749154176330194e-05
-2.4499020582879893e-05,3.028488026757259e-05,-1.0130976988875773e-05,5.4099080443847924e-05
-2.4420878617092967e-05,2.7353678888175637e-05,-1.0860748261620756e-05,6.015025428496301e-05
-2.8143356757937e-05,2.50305329245748e-05,-1.4525359802064486e-05,6.641926302108914e-05
-3.0382534532691352e-05,2.7749527362175286e-05,-1.4347058822750114e-05,6.828703044448048e-05
-2.6343162971897982e-05,2.7492129447637126e-05,-1.207980949402554e-05,6.559771281899884e-05
-2.219141424575355e-05,2.0614537788787857e-05,-1.063944091583835e-05,6.156542076496407e-05
-2.129513450199738e-05,1.6454694559797645e-05,-1.1330040251777973e-05,5.983654409646988e-05
-2.1895673853578046e-05,1.9977926058345474e-05,-1.2623795555555262e-05,6.256779306568205e-05
-1.9205703210900538e-05,2.3461361706722528e-05,-1.4673424630018417e-05,6.445061444537714e-05
-1.439531388314208e-05,2.3864758986746892e-05,-1.7966747691389173e-05,6.324570131255314e-05
-1.216666441905545e-05,2.1173076675040647e-05,-1.9759583665290847e-05,6.153986760182306e-05
-1.4521926459565293e-05,1.6193162082345225e-05,-1.9211154722142965e-05,6.232874147826806e-05
-1.9344808606547303e-05,1.747175156197045e-05,-1.77809051820077e-05,6.640418723691255e-05
-2.580741602287162e-05,2.586068512755446e-05,-1.6091271390905604e-05,6.966444198042154e-05
-3.25566106766928e-05,2.7434472940512933e-05,-1.3312064766068943e-05,6.859082350274548e-05
-3.377725442987867e-05,2.066740853479132e-05,-1.1247111615375616e-05,6.576276064151898e-05
-2.8810394724132493e-05,1.7525915609439835e-05,-9.56076110014692e-06,6.397743709385395e-05
-2.579948522907216e-05,1.954372419277206e-05,-8.709307621757034e-06,6.355751247610897e-05
-2.5999577701441012e-05,2.3642180167371407e-05,-9.92729837889783e-06,6.408396438928321e-05
-2.6416390028316528e-05,2.5710534828249365e-05,-1.0492995897948276e-05,6.635403406107798e-05
-2.6737601729109883e-05,2.313152617716696e-05,-1.2641789908229839e-05,6.887648487463593e-05
-2.7631620469037443e-05,2.495619082765188e-05,-1.8238197299069725e-05,6.833383667981252e-05
-2.805900658131577e-05,3.129700417048298e-05,-2.115200913976878e-05,6.674062024103478e-05
-2.367905472056009e-05,3.6125598853686824e-05,-1.8849352272809483e-05,6.62812526570633e-05
-1.829890243243426e-05,3.4160471841460094e-05,-1.592489570612088e-05,6.656272307736799e-05
-1.809099740057718e-05,2.332520489289891e-05,-1.2557780792121775e-05,6.591554847545922e-05
-2.2045393052394502e-05,1.4095580809225794e-05,-1.238544882653514e-05,6.262960232561454e-05
-2.6927358703687787e-05,1.94761323655257e-05,-1.573573172208853e-05,5.835021147504449e-05
-3.199326238245703e-05,3.399987690499984e-05,-1.7172793377540074e-05,5.415863051894121e-05
-3.2920102967182174e-05,4.04244965466205e-05,-1.4644219845649786e-05,5.7397792261326686e-05
-2.9001403163420036e-05,3.9430815377272666e-05,-8.243296178989112e-06,6.087413930799812e-05
-2.582928391348105e-05,3.74532573914621e-05,-6.011138339090394e-06,5.822169623570517e-05
-2.5785840989556164e-05,3.5626690078061074e-05,-7.3903870543290395e-06,5.5610093113500625e-05
-2.6736493964563124e-05,3.975982326664962e-05,-9.744680937728845e-06,5.3720294090453535e-05
-2.7883443181053735e-05,4.535014886641875e-05,-1.037489710142836e-05,5.3765103075420484e-05
-2.9983728381921537e-05,4.550876474240795e-05,-1.0729516361607239e-05,5.5476895795436576e-05
-3.2593678042758256e-05,3.931633909814991e-05,-1.0802152246469632e-05,5.795652396045625e-05
-3.3070835343096405e-05,3.239669604226947e-05,-1.1200452718185261e-05,5.7575209211790934e-05
-3.0647992389276624e-05,2.765408316918183e-05,-1.3076602954242844e-05,5.555008465307765e-05
-2.9064258342259564e-05,2.5520796043565497e-05,-1.1332878784742206e-05,5.9210058680037037e-05
-2.987826337630395e-05,2.230818608950358e-05,-5.141288056620397e-06,6.800167466280982e-05
-2.990834036609158e-05,1.7770300473785028e-05,-1.9203275769541506e-06,7.32160042389296e-05
-2.870505522878375e-05,1.5204707779048476e-05,-5.35462186235236e-06,6.987662345636636e-05
-2.8091193598811515e-05,1.390148918289924e-05,-1.1330262168485206e-05,6.445285544032231e-05
-2.7796233553090133e-05,1.6668638636474498e-05,-1.6868241800693795e-05,6.589976692339405e-05
-2.9329894459806383e-05,1.9562174202292226e-05,-1.8978076695930213e-05,6.760074029443786e-05
-3.2146283047040924e-05,2.2346248442772776e-05,-1.893280386866536e-05,6.412831862689927e-05
-3.150815246044658e-05,2.773438063741196e-05,-1.6292076907120645e-05,6.191096326801926e-05
-3.0093695386312902e-05,3.067743455176242e-05,-1.3214236787462141e-05,6.335372745525092e-05
-2.7500607757247053e-05,2.356096047151368e-05,-1.1116590940218884e-05,6.477345596067607e-05
-2.3156942916102707e-05,1.0111249139299616e-05,-1.1043921404052526e-05,5.9636291553033516e-05
-2.343383130209986e-05,3.182272166668554e-06,-1.1661815733532421e-05,5.246408545644954e-05
-2.727504943322856e-05,4.443531906872522e-06,-1.4455444215855096e-05,5.0046463002217934e-05
-3.092162296525203e-05,5.553479695663555e-06,-1.3627575754071586e-05,4.9809827032731846e-05
-3.213415766367689e-05,9.88976262306096e-06,-7.6306769187795e-06,5.112978396937251e-05
-3.13083510263823e-05,2.0517987650237046e-05,-3.676196683954913e-06,5.254035204416141e-05
-2.8059967007720843e-05,2.8614698749152012e-05,-2.749926125034108e-06,5.5156415328383446e-05
-2.6323887141188607e-05,2.7821997719001956e-05,-5.725286428059917e-06,5.7023837143788114e-05
-2.3588714611832984e-05,2.2730017008143477e-05,-6.332655175356194e-06,5.656493885908276e-05
-2.047622729151044e-05,1.8429172996548004e-05,-4.229212208883837e-06,5.335851165000349e-05
-2.078865873045288e-05,2.1819892936036922e-05,-2.3101840724848444e-06,5.013062764192e-05
-2.1814057618030347e-05,2.826863419613801e-05,9.824000812841405e-08,5.130105637363158e-05
-2.1205501980148256e-05,2.5156152332783677e-05,2.2709302811563248e-06,5.540921483770944e-05
-1.9840448658214882e-05,2.045478868240025e-05,3.834767994703725e-06,5.8121753681916744e-05
-1.905508543131873e-05,2.4962420866359025e-05,3.9196343095682096e-06,5.609873915091157e-05
-1.988882286241278e-05,2.9175429517636076e-05,3.6508786251943093e-06,5.361640432965942e-05
-2.3910561139928177e-05,2.385208244959358e-05,3.6297226415626938e-06,5.2901403250871226e-05
-2.818126267811749e-05,1.7868171198642813e-05,1.3936715959061985e-06,5.175841215532273e-05
-2.9370630727498792e-05,2.2170928787090816e-05,-3.4085098832292715e-06,5.218991282163188e-05
-2.8313046641414985e-05,3.175600431859493e-05,-7.2297016231459565e-06,5.430194869404659e-05
-2.8477772502810694e-05,3.172010474372655e-05,-9.272926945413928e-06,5.219086233410053e-05
-3.0014824005775154e-05,2.0520721591310576e-05,-1.0511977052374277e-05,4.7528548748232424e-05
-3.0320550649776123e-05,1.0718976227508392e-05,-1.0664815818017814e-05,4.718957279692404e-05
-2.803555798891466e-05,7.45176157579408e-06,-8.606664778199047e-06,5.152120502316393e-05
-2.8004862542729825e-05,8.85247118276311e-06,-5.768270966655109e-06,5.446912473416887e-05
-2.4648617909406312e-05,1.0775194823509082e-05,-5.18190836373833e-06,5.3205785661702976e-05
-1.7836136976256967e-05,1.3525576832762454e-05,-3.348080326759373e-06,4.728824569610879e-05
-1.684412927716039e-05,1.2859835806011688e-05,-7.356616151810158e-07,4.267987242201343e-05
-2.3160800992627628e-05,1.1713646927091759e-05,-2.272292931593256e-06,4.4254691601963714e-05
-2.9288927180459723e-05,1.4321626622404438e-05,-5.357224381441483e-06,5.128608245286159e-05
-2.9193419322837144e-05,1.355375843559159e-05,-8.333588084497023e-06,5.5870430514914915e-05
-2.6015632101916708e-05,1.6400283129769377e-05,-1.2492783753259573e-05,5.2921845053788275e-05
-2.5008926968439482e-05,2.1942545572528616e-05,-1.8494563846616074e-05,4.718858326668851e-05
-2.6658775823307224e-05,2.5966890461859293e-05,-2.264857175759971e-05,4.2068302718689665e-05
-2.8902855774504133e-05,2.770209903246723e-05,-2.1524956537177786e-05,4.1179137042490765e-05
-3.081867180299014e-05,2.9702838219236583e-05,-1.8988916053785942e-05,4.272009027772583e-05
-3.270028901170008e-05,2.8076747184968553e-05,-1.6141206288011745e-05,4.525533950072713e-05
-3.4577496990095824e-05,2.5669714887044393e-05,-1.5831847122171894e-05,4.798082591150887e-05
-3.193986412952654e-05,2.681080877664499e-05,-1.682695801719092e-05,5.041023905505426e-05
-2.7116238925373182e-05,2.6373891159892082e-05,-1.645341944822576e-05,5.104332376504317e-05
-2.6180727218161337e-05,2.3683423933107406e-05,-1.4166374057822395e-05,5.187175702303648e-05
-2.9775868824799545e-05,2.504507574485615e-05,-1.0281222785124555e-05,5.282089114189148e-05
-3.23853237205185e-05,3.102208211203106e-05,-8.18394710222492e-06,5.154224345460534e-05
-2.9701188395847566e-05,3.313991692266427e-05,-9.329380191047676e-06,5.1179693400627e-05
-2.4324777768924832e-05,2.797243905661162e-05,-1.0655411642801482e-05,5.132538717589341e-05
-2.1920890503679402e-05,2.0541272533591837e-05,-1.10714045149507e-05,5.036560105509125e-05
-2.039306127699092e-05,2.01690800167853e-05,-1.3569696420745458e-05,5.153883103048429e-05
-1.8986764189321548e-05,2.4081493393168785e-05,-1.6829922969918698e-05,5.519905244000256e-05
-2.1145277059986256e-05,2.750803469098173e-05,-1.919196620292496e-05,5.7172717788489535e-05
-2.326168214494828e-05,2.8869919333374128e-05,-2.051326009677723e-05,5.677298395312391e-05
-2.3123193386709318e-05,2.7549533115234226e-05,-1.8041027942672372e-05,5.6086922995746136e-05
-2.6295036150258966e-05,2.3270640667760745e-05,-1.3938584743300453e-05,5.6838925956981257e-05
-3.280698729213327e-05,1.8810776964528486e-05,-1.1729948710126337e-05,5.7985016610473394e-05
-3.64112202078104e-05,1.785425229172688e-05,-8.33845479064621e-06,5.87738431931939e-05
-3.473078686511144e-05,2.0942441551596858e-05,-5.803868134535151e-06,5.5282846005866304e-05
-3.0236842576414347e-05,1.8009997802437283e-05,-6.179947376949713e-06,5.091947969049215e-05
-2.360900180065073e-05,1.2258897186256945e-05,-1.0506337275728583e-05,4.851652920478955e-05
-1.5630170310032554e-05,1.8856202586903237e-05,-1.6666286683175713e-05,4.955596523359418e-05
-1.4992373507993761e-05,3.13502641802188e-05,-2.0488370864768513e-05,5.223646803642623e-05
-1.919629175972659e-05,3.373816070961766e-05,-1.7475684217060916e-05,5.078961839899421e-05
-1.9288861949462444e-05,2.8235723220859654e-05,-1.0857701454369817e-05,4.6103697968646884e-05
-1.4391954209713731e-05,2.706667328311596e-05,-8.594837709097192e-06,4.146269930060953e-05
-1.3300291357154492e-05,3.052328611374833e-05,-7.788700713717844e-06,4.398630335344933e-05
-1.6782327293185517e-05,2.9579849069705233e-05,-5.998345386615256e-06,4.9570582632441074e-05
-1.915978100441862e-05,2.4838816898409277e-05,-1.7429806575819384e-06,5.409918594523333e-05
-2.1231311620795168e-05,2.7247217076364905e-05,2.8202086923556635e-06,5.627251084661111e-05
-2.438073897792492e-05,3.48888170265127e-05,4.956216343998676e-06,5.510906339623034e-05
-2.7458747354103252e-05,3.533538256306201e-05,5.005109869671287e-06,5.250657704891637e-05
-2.9031449230387807e-05,3.2720847229938954e-05,4.005280970886815e-06,5.037268056184985e-05
-3.0419070753850974e-05,3.5202807339373976e-05,4.80946710013086e-06,4.895183883490972e-05
-3.0686718673678115e-05,3.805018786806613e-05,5.630649411614286e-06,4.966839696862735e-05
-2.902731648646295e-05,3.484537228359841e-05,3.2056761938292766e-06,5.2183313528075814e-05
-2.661264079506509e-05,2.782001502055209e-05,-2.6175011953455396e-06,5.2947161748306826e-05
-2.5357796403113753e-05,2.472537562425714e-05,-9.08520451048389e-06,5.2070692618144676e-05
-2.394906186964363e-05,2.8952454158570617e-05,-1.4802461919316556e-05,5.197972132009454e-05
-2.4375489374506287e-05,3.493060285109095e-05,-1.5596138837281615e-05,5.352363587007858e-05
-2.7412483177613467e-05,3.631025174399838e-05,-1.0594151717668865e-05,5.417028660303913e-05
-2.945607775473036e-05,3.224011015845463e-05,-5.745220732933376e-06,5.339410563465208e-05
-2.7160305762663484e-05,2.9475471819750965e-05,-2.349725718886475e-06,5.279437027638778e-05
-2.3412883820128627e-05,2.901084917539265e-05,-2.9155673928471515e-06,5.671826875186525e-05
-2.419658085273113e-05,2.5324547095806338e-05,-6.226268396858359e-06,5.985911047901027e-05
-2.4768545699771494e-05,1.901550240290817e-05,-9.957921065506525e-06,5.938351750955917e-05
-2.29036759265e-05,1.15764432848664e-05,-1.0229506187897641e-05,5.944287477177568e-05
-2.1756144633400254e-05,8.773055924393702e-06,-7.222538442874793e-06,5.993517333990894e-05
-2.2124342649476603e-05,1.210914797411533e-05,-1.0917136023635976e-05,5.914575740462169e-05
-2.3174256057245657e-05,2.0334135115263052e-05,-1.3509296877600718e-05,5.9541875089053065e-05
-2.1894678866374306e-05,2.5480116164544597e-05,-1.011458516586572e-05,6.2220984546002e-05
-2.009554191317875e-05,2.6582447389955632e-05,-7.191850272647571e-06,6.454904359998181e-05
-2.194679109379649e-05,2.6486544811632484e-05,-5.425487870525103e-06,6.627055699937046e-05
-2.8211889002704993e-05,2.5721001293277368e-05,-4.648864887712989e-06,6.861127621959895e-05
-3.309840758447535e-05,2.589670657471288e-05,-3.934695541829569e-06,7.190784526756033e-05
-3.568251122487709e-05,2.7307089112582617e-05,-3.5304267385072308e-06,7.11421889718622e-05
-3.6123019526712596e-05,2.939343721664045e-05,-5.203702585276915e-06,6.691260205116123e-05
-3.488559741526842e-05,2.9470111257978715e-05,-8.07886135589797e-06,6.247452984098345e-05
-3.370104604982771e-05,2.8748951081070118e-05,-8.119739504763857e-06,6.19655693299137e-05
-3.381840360816568e-05,3.2335705327568576e-05,-5.3057110562804155e-06,6.440009747166187e-05
-3.691746314871125e-05,3.574473157641478e-05,-1.9463136595732067e-06,6.716480129398406e-05
-3.8900619983905926e-05,3.385882155271247e-05,-2.100262690873933e-06,7.072239532135427e-05
-3.725775968632661e-05,2.7425901862443425e-05,-5.494815013662446e-06,7.213011849671602e-05
-3.550425753928721e-05,1.8631539205671288e-05,-7.239712431328371e-06,6.962400220800191e-05
-3.614365778048523e-05,1.3700353520107456e-05,-6.058051894797245e-06,6.716603093082085e-05
-3.596259557525627e-05,1.3921743629907724e-05,-6.680423666693969e-06,6.62883321638219e-05
-3.524678686517291e-05,1.6885853256098926e-05,-1.2475770745368209e-05,6.563233910128474e-05
-3.18137499561999e-05,1.688189513515681e-05,-2.3448234060197137e-05,6.806667079217732e-05
-2.5754245143616572e-05,1.4630900295742322e-05,-3.164155350532383e-05,7.068928971420974e-05
-2.2223739506443962e-05,1.4832081433269195e-05,-3.108018427155912e-05,7.046134123811498e-05
-2.2311489374260418e-05,1.4059560271562077e-05,-2.7496776965563186e-05,6.883990863570943e-05
-2.5142202503047884e-05,9.446614967600908e-06,-2.3497443180531263e-05,6.786496669519693e-05
-2.4966158889583312e-05,3.577071083782357e-06,-2.37415933952434e-05,7.092318992363289e-05
-2.1354657292249613e-05,4.202011950837914e-06,-2.6742231057141908e-05,7.586596620967612e-05
-2.3749318643240258e-05,1.1517804523464292e-05,-2.2872105546412058e-05,7.658848335267976e-05
-2.6183004592894576e-05,2.030602263403125e-05,-1.5168063328019343e-05,7.468160765711218e-05
-2.3797116227797233e-05,2.5674917196738534e-05,-1.1994641681667417e-05,7.64819051255472e-05
-2.2135296603664756e-05,2.6687253921409138e-05,-1.323687411058927e-05,7.654369983356446e-05
-2.0457629943848588e-05,2.7242194846621715e-05,-1.1387994163669646e-05,7.304806058527902e-05
-1.7999129340751097e-05,2.4239976482931525e-05,-6.150545232230797e-06,7.334145630011335e-05
-1.807331500458531e-05,2.2003297999617644e-05,-2.4983355615404435e-06,7.423626811942086e-05
-2.026294168899767e-05,2.2729152988176793e-05,-1.0594477544145775e-06,7.574065239168704e-05
-2.4014954760787077e-05,2.8373471650411375e-05,-2.1569760519923875e-06,7.508887210860848e-05
-2.8031490728608333e-05,3.511535032885149e-05,-4.547029675450176e-06,7.159368396969512e-05
-2.8480691980803385e-05,3.5678149288287386e-05,-7.363451913988683e-06,6.834397208876908e-05
-2.5844461561064236e-05,3.03416745737195e-05,-1.1681770956784021e-05,6.745704740751535e-05
-2.2171245291247033e-05,2.93918728857534e-05,-1.69395498232916e-05,6.778819079045206e-05
-2.1758520233561285e-05,3.142728382954374e-05,-1.757097925292328e-05,6.655398465227336e-05
-2.4701035727048293e-05,3.456528065726161e-05,-1.4531968190567568e-05,6.277338979998603e-05
-2.7881320420419797e-05,3.850530993076973e-05,-1.348455134575488e-05,6.0167312767589465e-05
-2.6063780751428567e-05,4.0356520912609994e-05,-1.4779664525121916e-05,6.14443197264336e-05
-1.965349838428665e-05,4.154203998041339e-05,-1.616656663827598e-05,6.297735671978444e-05
-1.6372976460843347e-05,4.008989344583824e-05,-1.759598671924323e-05,6.440077413571998e-05
-1.8892034859163687e-05,3.355523949721828e-05,-1.808099841582589e-05,6.221056537469849e-05
-2.2782765881856903e-05,1.9558550775400363e-05,-1.6137755665113218e-05,5.645428609568626e-05
-2.840126762748696e-05,5.919355317018926e-06,-1.3450192454911303e-05,5.608216088148765e-05
-3.189075869158842e-05,2.4007160845940234e-06,-1.2521716598712374e-05,6.360551924444735e-05
-3.046666824957356e-05,1.426036669727182e-05,-1.372096812701784e-05,6.75862975185737e-05
-2.8746810130542144e-05,2.7348274670657702e-05,-1.5043453458929434e-05,6.457813287852332e-05
-2.8354588721413165e-05,2.8611002562684007e-05,-1.4589948477805592e-05,6.142639176687226e-05
-2.8131356884841807e-05,2.0918385416734964e-05,-1.7341819329885766e-05,6.365113949868828e-05
-2.5005763745866716e-05,1.1476080544525757e-05,-2.1849637050763704e-05,6.202236545505002e-05
-2.1260366338538006e-05,9.322536243416835e-06,-2.1102991013322026e-05,5.747589239035733e-05
-2.1975060008116998e-05,1.3556486919696908e-05,-1.557514042360708e-05,5.887143561267294e-05
-2.553623380663339e-05,1.963098839041777e-05,-8.823434654914308e-06,6.165052764117718e-05
-2.4565650164731778e-05,2.3886050257715397e-05,-7.105204986146418e-06,6.165458034956828e-05
-2.180754927394446e-05,2.4535740521969274e-05,-5.808377864013892e-06,5.8163106587016955e-05
-2.1363866835599765e-05,2.7070298528997228e-05,-3.476677193248179e-06,5.461463297251612e-05
-2.5345374524476938e-05,2.5460672986810096e-05,-3.66864378520404e-06,5.2744653658010066e-05
-2.7829326427308843e-05,1.9978935597464442e-05,-5.838238848809851e-06,5.273826536722481e-05
-2.8578371711773798e-05,1.872307257144712e-05,-5.735355443903245e-06,5.3566083806799725e-05
-3.1309427868109196e-05,2.3649679860682227e-05,-1.7302143078268273e-06,5.420283196144737e-05
-3.3182841434609145e-05,2.6905407139565796e-05,1.6998740193230333e-06,5.3797375585418195e-05
-3.57210919901263e-05,2.7552952815312892e-05,1.8950688627228374e-06,5.054766370449215e-05
-3.810011548921466e-05,2.714428774197586e-05,-1.8854304926207988e-06,4.6463006583508104e-05
-3.981719055445865e-05,2.3599934138474055e-05,-7.617173650942277e-06,4.7609129978809506e-05
-4.0405291656497866e-05,1.706375041976571e-05,-1.1268381967965979e-05,5.311441418598406e-05
-3.895291956723668e-05,1.50080395542318e-05,-1.1545075722096954e-05,5.527766916202381e-05
-3.289035157649778e-05,2.119573218806181e-05,-1.155324571300298e-05,5.303285433910787e-05
-2.529436824261211e-05,3.133251084364019e-05,-1.3049604604020715e-05,5.060486728325486e-05
-2.378650060563814e-05,4.027094837510958e-05,-1.500550024502445e-05,4.7949950385373086e-05
-2.6339554096921347e-05,4.5028158638160676e-05,-1.6495698218932375e-05,4.672367504099384e-05
-2.5381124942214228e-05,4.602297121891752e-05,-1.8673094018595293e-05,4.9084042984759435e-05
-2.37242547882488e-05,4.3679137888830155e-05,-1.6647780284984037e-05,4.911069481750019e-05
-2.4889166525099427e-05,4.147189247305505e-05,-8.365182111447211e-06,4.794891719939187e-05
-2.88458977593109e-05,3.863763777189888e-05,-1.8681110987017746e-06,5.2109258831478655e-05
-3.181851570843719e-05,4.259962952346541e-05,-7.5446077971719205e-06,5.6080392823787406e-05
-3.056280183955096e-05,4.4453721784520894e-05,-1.4431835552386474e-05,5.439183587441221e-05
-2.3871489247540012e-05,3.903540346072987e-05,-9.71768531599082e-06,5.541988502955064e-05
-1.881772550405003e-05,3.700859087985009e-05,-5.491274805535795e-06,5.8756795624503866e-05
-1.9343684471095912e-05,3.62787141057197e-05,-6.773972017981578e-06,6.049556759535335e-05
-1.989626616705209e-05,3.24826396536082e-05,-7.084153821779182e-06,6.201062205946073e-05
-2.0227767890901305e-05,2.7890246201422997e-05,-3.1818565275898436e-06,6.311980541795492e-05
-1.815516225178726e-05,2.7665982997859828e-05,-6.544686925735732e-07,6.375601515173912e-05
-1.3787172974843998e-05,3.178484257659875e-05,-1.6293126918753842e-06,6.0450878663687035e-05
-1.255831193702761e-05,3.149791882606223e-05,-4.08564847020898e-06,5.7144134189002216e-05
-1.6137029888341203e-05,2.2132529920781963e-05,-6.552153081429424e-06,5.658191366819665e-05
-1.8604452634463087e-05,1.1147273653477896e-05,-7.5179727900831494e-06,5.846391286468133e-05
-2.0608431441360153e-05,5.502901331055909e-06,-8.718475328350905e-06,6.05690547672566e-05
-2.3182954464573413e-05,1.2600803529494442e-06,-1.1790044482040685e-05,6.126840162323788e-05
-2.3947715817485005e-05,-1.8855007510865107e-06,-1.484962285758229e-05,5.9046669775852934e-05
-2.3067164875101298e-05,9.236466098627716e-07,-1.300134044868173e-05,5.790158320451155e-05
-2.3505011995439418e-05,8.75806017575087e-06,-8.1906055129366e-06,6.317211227724329e-05
-2.6391180654172786e-05,1.4524312064168043e-05,-5.782498192274943e-06,6.823090370744467e-05
-2.968099943245761e-05,1.5631852875230834e-05,-6.495005891338224e-06,6.746745930286124e-05
-2.9880315196351148e-05,1.3283477528602816e-05,-9.394068911205977e-06,6.29649730399251e-05
-2.932106508524157e-05,1.1374083442206029e-05,-1.0517075679672416e-05,5.96247919020243e-05
-2.9146953238523565e-05,1.2453862836991902e-05,-6.875004146422725e-06,5.797317498945631e-05
-2.3698801669524983e-05,1.3429351383820176e-05,-5.356022938940441e-06,5.464761488838121e-05
-1.660662383073941e-05,1.5670830180170015e-05,-9.105693607125431e-06,5.245297143119387e-05
-1.4500270481221378e-05,2.1189500330365263e-05,-1.2263979442650452e-05,5.553823211812414e-05
-1.3662808669323567e-05,2.656370088516269e-05,-1.1156139407830779e-05,5.74428413528949e-05
-1.2604811672645155e-05,3.022178316314239e-05,-9.447824595554266e-06,5.643844269798137e-05
-1.4892962099111173e-05,3.513721821946092e-05,-8.21357753011398e-06,5.262711056275293e-05
-1.6673042409820482e-05,3.623673183028586e-05,-1.0961797670461237e-05,4.821480251848698e-05
-1.7614000171306543e-05,2.979584678541869e-05,-1.4143803127808496e-05,4.98288864037022e-05
-1.9402314137551002e-05,2.5448131054872647e-05,-1.3637748452310916e-05,5.293084177537821e-05
-2.2860125682200305e-05,3.11899530061055e-05,-1.3167546057957225e-05,5.4640233429381624e-05
-2.6644469471648335e-05,3.658827336039394e-05,-1.2563868949655443e-05,5.5396387324435636e-05
-2.826710078807082e-05,3.084875424974598e-05,-1.2686603440670297e-05,5.264159699436277e-05
-2.747679900494404e-05,2.1016860046074726e-05,-1.100502868212061e-05,4.691310823545791e-05
-2.3325463189394213e-05,1.967077150766272e-05,-1.1617188647505827e-05,4.5259788748808205e-05
-1.8876578906201757e-05,2.5237577574444003e-05,-1.4244377780414652e-05,5.099981717648916e-05
-2.1447582184919156e-05,3.0407489248318598e-05,-1.4543961697199848e-05,5.4839802032802254e-05
-2.840878369170241e-05,3.163537257933058e-05,-1.1348452972015366e-05,5.277905802358873e-05
-3.1033494451548904e-05,2.8217631552251987e-05,-7.898754120105878e-06,4.988587534171529e-05
-2.7157278964295983e-05,2.6051877284771763e-05,-8.988265108200721e-06,5.213663098402321e-05
-2.160264557460323e-05,2.7250527637079358e-05,-1.2227003026055172e-05,5.7679357269080356e-05
-2.136443799827248e-05,2.7831965780933388e-05,-1.1104925761173945e-05,6.083009429858066e-05
-2.5114244635915384e-05,2.674613642739132e-05,-7.804080269124825e-06,6.254050822462887e-05
-2.73972127615707e-05,2.9410028218990192e-05,-7.550598638772499e-06,6.342798587866127e-05
-2.6811447241925634e-05,3.402731454116292e-05,-6.7785508690576535e-06,6.346192822093144e-05
-2.723543730098754e-05,3.405583629501052e-05,-5.544547548197443e-06,6.301024404820055e-05
-2.763180782494601e-05,2.9242486561997794e-05,-7.716749678365886e-06,6.144020881038159e-05
-2.6180032364209183e-05,2.0972678612452e-05,-1.2548224731290247e-05,6.012574158376083e-05
-2.4483186280122027e-05,1.5729381630080752e-05,-1.5396166418213397e-05,6.17747864453122e-05
-2.3434633476426825e-05,1.533349131932482e-05,-1.3682132703252137e-05,6.454789399867877e-05
-2.312143442395609e-05,1.4533150533679873e-05,-8.969484952103812e-06,6.390740600181744e-05
-2.2162366803968325e-05,1.4173674571793526e-05,-7.658621143491473e-06,5.9850459365407005e-05
-2.1214802472968586e-05,1.2168704415671527e-05,-9.32935654418543e-06,5.624030018225312e-05
-2.310332092747558e-05,6.220549494173611e-06,-9.7508136605029e-06,5.763298031524755e-05
-2.6597930627758615e-05,4.444030309969094e-06,-1.0271462087985128e-05,6.010833021719009e-05
-2.6955362045555376e-05,8.40386110212421e-06,-1.262645218957914e-05,6.0005884733982384e-05
-2.651326394698117e-05,1.5435471141245216e-05,-1.5329456800827757e-05,6.245235272217542e-05
-2.9500504751922563e-05,1.9856675862683915e-05,-1.6109925127238967e-05,6.40766738797538e-05
-3.364971780683845e-05,2.041881270997692e-05,-1.4895460481056944e-05,6.166278035379946e-05
-3.6638441088143736e-05,1.9448480088612996e-05,-1.4354673112393357e-05,5.838370998390019e-05
-3.75280505977571e-05,1.8586810256238095e-05,-1.7478480003774166e-05,5.433247497421689e-05
-3.430221840972081e-05,2.4661820134497248e-05,-2.195855813624803e-05,5.2941122703487054e-05
-3.093071063631214e-05,2.8795575417461805e-05,-2.3714126655249856e-05,5.564659659285098e-05
-3.2047348213382065e-05,2.8371992812026292e-05,-2.1114163246238604e-05,5.651816536555998e-05
-3.399307752260938e-05,2.6747091396828182e-05,-1.545505438116379e-05,5.297606185195036e-05
-3.176739483023994e-05,2.4607339582871646e-05,-1.0828574886545539e-05,4.5335069444263354e-05
-2.7633954232442193e-05,2.273802601848729e-05,-8.30495628179051e-06,3.998960164608434e-05
-2.491152372385841e-05,2.176812631660141e-05,-7.2665870902710594e-06,4.03071753680706e-05
-2.5263134375563823e-05,2.5036373699549586e-05,-5.764649358752649e-06,4.176885340712033e-05
-2.5899684260366485e-05,2.9987739253556356e-05,-2.8487356757977977e-06,4.391655238578096e-05
-2.4924138415372e-05,3.152532008243725e-05,-1.132872853304434e-06,4.662071296479553e-05
-2.602308632049244e-05,2.4860228222678415e-05,-2.2648578124062624e-06,4.7339599404949695e-05
-2.909397335315589e-05,1.593278102518525e-05,-4.631040610547643e-06,4.712008376372978e-05
-2.969541856145952e-05,1.3756248335994314e-05,-5.216590579948388e-06,4.957299825036898e-05
-2.914899778261315e-05,1.8147478840546682e-05,-5.0034018386213575e-06,5.152569428901188e-05
-2.806221709761303e-05,2.121319448633585e-05,-3.6493545394478133e-06,5.247879744274542e-05
-2.6039382646558806e-05,2.2045524019631557e-05,-3.898875604591012e-07,5.522706487681717e-05
-2.6746631192509085e-05,2.371499613218475e-05,4.3944319827460276e-07,5.629989391309209e-05
-2.4395812943112105e-05,2.4602813937235624e-05,-2.1820069378009066e-06,5.6938311900012195e-05
-2.023896377068013e-05,2.4740342269069515e-05,-4.358493697509402e-06,5.873700501979329e-05
-1.8044524040305987e-05,2.4060624127741903e-05,-3.801396360358922e-06,5.674939529853873e-05
-1.9794459149125032e-05,1.3695622328668833e-05,-1.1055306003981968e-06,5.858454096596688e-05
-2.307800059497822e-05,6.815483175159898e-06,1.1748691122193122e-06,6.240661605261266e-05
-2.2028298189979978e-05,1.6265503290924244e-05,1.089972442969156e-06,5.86793503316585e-05
-2.1046833353466354e-05,2.6904319383902475e-05,-1.2180201736100571e-08,5.3052139264764264e-05
-2.147613122360781e-05,2.9340530090848915e-05,-1.809143896025489e-06,5.0974340410903096e-05
-2.325589048268739e-05,2.4968565412564203e-05,-5.348994818632491e-06,5.163188325241208e-05
-2.601971573312767e-05,2.1511812519747764e-05,-8.81637151906034e-06,5.1614741096273065e-05
-2.5289928089478053e-05,2.22063172259368e-05,-1.0150039997824933e-05,5.236387005425058e-05
-2.340981700399425e-05,2.2928639737074263e-05,-8.887654985301197e-06,5.500494808075018e-05
-2.5115214157267474e-05,2.141825098078698e-05,-6.363140983012272e-06,5.721660636481829e-05
-2.7992940886178985e-05,2.365554428251926e-05,-5.554467861657031e-06,5.3926869441056624e-05
-3.219807331333868e-05,2.7420659534982406e-05,-5.708592198061524e-06,4.841568079427816e-05
-3.364583972143009e-05,2.907411180785857e-05,-5.69775602343725e-06,4.929205169901252e-05
-3.079440284636803e-05,2.9013010134804063e-05,-4.892249307886232e-06,5.509494076250121e-05
-2.889611459977459e-05,3.173173172399402e-05,-3.067762690989184e-06,5.787919508293271e-05
-2.8831529562012292e-05,3.6954155802959576e-05,-2.9872053346480243e-06,5.7344343076692894e-05
-2.6758241801871918e-05,3.723855843418278e-05,-6.055568974261405e-06,5.6488726841052994e-05
-2.488970130798407e-05,3.0443576179095544e-05,-9.398864676768426e-06,5.816450357087888e-05
-2.531680729589425e-05,2.239598507003393e-05,-9.540941391605884e-06,6.243164534680545e-05
-2.7714400857803412e-05,1.993698788282927e-05,-9.266291272069793e-06,6.559558096341789e-05
-3.118421955150552e-05,2.3645703549846075e-05,-1.1649021871562582e-05,6.527351797558367e-05
-3.253800605307333e-05,3.0097042326815426e-05,-1.4930882571206894e-05,6.162437057355419e-05
-3.324254066683352e-05,3.081523391301744e-05,-1.5255014659487642e-05,5.858310032635927e-05
-3.260171433794312e-05,2.2671893020742573e-05,-1.49819279613439e-05,6.00436505919788e-05
-3.006302722496912e-05,1.83933643711498e-05,-1.5145722500164993e-05,6.399897392839193e-05
-2.7225498342886567e-05,2.6322742996853776e-05,-1.4140913663140964e-05,6.391090573742986e-05
-2.658461562532466e-05,3.3672069548629224e-05,-1.3486102943716105e-05,6.1374346842058e-05
-2.5363849999848753e-05,2.8577800549101084e-05,-1.1722754607035313e-05,6.003505768603645e-05
-2.24048962991219e-05,2.0148056137259118e-05,-5.63963931199396e-06,6.070029849070124e-05
-2.2597634597332217e-05,2.4049046260188334e-05,-1.250695845556038e-06,5.8728062867885455e-05
-2.519815279811155e-05,3.26993758790195e-05,-2.6305979190510698e-06,5.707962918677367e-05
-2.427687832096126e-05,3.717322397278622e-05,-4.234458174323663e-06,5.6976488849613816e-05
-1.8619150068843737e-05,3.372526407474652e-05,-5.001621047995286e-06,5.52466772205662e-05
-1.2727165085379966e-05,2.835330815287307e-05,-7.338215255003888e-06,5.471617987495847e-05
-1.2703244465228636e-05,2.7732881790143438e-05,-1.116998555517057e-05,5.653834523400292e-05
-1.4424746950680856e-05,2.8924843718414195e-05,-1.279003936360823e-05,5.7297209423268214e-05
-1.619723298063036e-05,3.0016963137313724e-05,-1.0584968549665064e-05,5.767439870396629e-05
-1.8541308236308396e-05,2.789033533190377e-05,-5.549885372602148e-06,6.06140420131851e-05
-2.1850990378879942e-05,2.38345473917434e-05,-3.992821802967228e-06,6.249493890209123e-05
-2.5567358534317464e-05,2.10963098652428e-05,-8.01902569946833e-06,6.333316559903324e-05
-2.6144458388444036e-05,2.0910856619593687e-05,-1.1970839295827318e-05,6.28367270110175e-05
-2.432190376566723e-05,1.8675815226742998e-05,-1.1448491022747476e-05,6.089124872232787e-05
-2.4028982807067223e-05,1.6724470697226934e-05,-9.518666047370061e-06,5.7149514759657905e-05
-2.646069333422929e-05,1.9322113075759262e-05,-9.826307177718263e-06,5.3747950005345047e-05
-2.855063030438032e-05,2.196882815042045e-05,-1.3005256732867565e-05,5.20909161423333e-05
-3.0558887374354526e-05,2.2228074158192612e-05,-1.93672240129672e-05,5.014805356040597e-05
-3.010059481312055e-05,2.6733830964076333e-05,-2.637044781295117e-05,4.836818334297277e-05
-2.7318847060087137e-05,3.0999191949376836e-05,-2.9258999347803183e-05,4.975667252438143e-05
-2.6461035304237157e-05,2.6515288482187316e-05,-2.593504723336082e-05,5.279095785226673e-05
-2.718647192523349e-05,1.905349563458003e-05,-2.0757081074407324e-05,5.574903843807988e-05
-2.629821938171517e-05,1.9045197404921055e-05,-1.5582119885948487e-05,5.757232429459691e-05
-2.4120299713104032e-05,2.344686072319746e-05,-1.0546375051490031e-05,5.595977927441709e-05
-1.953613173100166e-05,2.3858512577135116e-05,-7.166283012338681e-06,5.178658466320485e-05
-1.5920155419735238e-05,2.2088222976890393e-05,-6.377048521244433e-06,5.1571245421655476e-05
-1.7593431039131247e-05,2.3256077838595957e-05,-7.484354227926815e-06,5.1319428166607395e-05
-2.1947587811155245e-05,2.211730861745309e-05,-6.277411102928454e-06,4.7818070015637204e-05
-2.3659729777136818e-05,1.5943229300319217e-05,-7.670661943848245e-06,4.9542672059033066e-05
-2.1383611965575255e-05,1.5045844520500395e-05,-1.344269639957929e-05,5.408686774899252e-05
-2.0209423382766545e-05,1.8449345589033328e-05,-1.4215800547390245e-05,5.522880383068696e-05
-2.11415026569739e-05,2.2309875930659473e-05,-9.137531378655694e-06,5.196663551032543e-05
-2.2934120352147147e-05,2.188956023019273e-05,-3.110148327323259e-06,5.145258910488337e-05
-2.5840879970928654e-05,1.6980244254227728e-05,-2.954525598397595e-06,5.63948524359148e-05
-2.6040137527161278e-05,1.1588374036364257e-05,-6.9973812060197815e-06,6.314192432910204e-05
-2.7156249416293576e-05,9.337305527878925e-06,-1.188194983114954e-05,6.400243728421628e-05
-3.129920150968246e-05,1.1138082300021779e-05,-1.3604240848508198e-05,5.964261799817905e-05
-3.443491004873067e-05,1.7250276869162917e-05,-1.068516394298058e-05,5.832057286170311e-05
-3.1740601116325706e-05,2.6180770873907022e-05,-6.55141229799483e-06,6.247241253731772e-05
-2.5736173483892344e-05,3.324460703879595e-05,-7.502610515075503e-06,6.420428690034896e-05
-2.2628904844168574e-05,3.468268914730288e-05,-1.4079081665840931e-05,6.0568527260329574e-05
-2.432937253615819e-05,3.120001565548591e-05,-1.9433309716987424e-05,5.7746783568290994e-05
-2.7055693863076158e-05,2.9291995815583505e-05,-2.0270972527214326e-05,5.921967022004537e-05
-2.6823861844604835e-05,3.187511902069673e-05,-1.9694462025654502e-05,6.309992750175297e-05
-2.5009390810737386e-05,3.699594526551664e-05,-2.082720493490342e-05,6.520323950098827e-05
-2.3614651581738144e-05,4.025438101962209e-05,-2.1044525055913255e-05,6.289441807894036e-05
-2.392234091530554e-05,3.8976941141299903e-05,-1.8296730559086427e-05,5.735683589591645e-05
-2.644136839080602e-05,3.273505353718065e-05,-1.4362076399265788e-05,5.607006823993288e-05
-2.924035106843803e-05,2.6774359866976738e-05,-1.3029006368014961e-05,5.834483454236761e-05
-3.246684354962781e-05,2.744149969657883e-05,-9.822941137827002e-06,5.945334123680368e-05
-3.465187182882801e-05,3.181303691235371e-05,-4.364498181530507e-06,5.914500798098743e-05
-3.108872624579817e-05,3.196358011336997e-05,-2.491222630851553e-06,6.028133429936133e-05
-2.7544136173673905e-05,2.7230194973526523e-05,-4.860953140450874e-06,6.284227856667712e-05
-2.5518025722703896e-05,2.371306618442759e-05,-1.0161757927562576e-05,6.527784717036411e-05
-2.3432497982867062e-05,2.6150260964641348e-05,-1.5087377505551558e-05,6.446641054935753e-05
-1.92066072486341e-05,2.5630133677623235e-05,-1.5939971490297467e-05,6.366778688970953e-05
-1.6097590560093522e-05,2.321631836821325e-05,-1.6668005628162064e-05,6.41592632746324e-05
-1.6514672097400762e-05,2.542798756621778e-05,-1.4220629054761957e-05,6.497353024315089e-05
-2.0436124032130465e-05,2.94353740173392e-05,-1.0349290278099943e-05,6.919735460542142e-05
-2.3038974177325144e-05,3.146942617604509e-05,-8.988820809463505e-06,7.359066512435675e-05
-2.2835361960460432e-05,3.3102820452768356e-05,-1.0087898772326298e-05,7.368775550276041e-05
-2.251214573334437e-05,3.3241220080526546e-05,-1.2380487532936968e-05,7.004831422818825e-05
-2.3362988940789364e-05,3.350561746628955e-05,-1.1941203410970047e-05,6.555493018822744e-05
-2.3741982658975758e-05,3.849660060950555e-05,-1.0069644304167014e-05,6.287809810601175e-05
-2.4183756977436133e-05,4.079144127899781e-05,-7.74482759879902e-06,6.0398353525670245e-05
-2.8740607376676053e-05,3.444790854700841e-05,-6.258837856876198e-06,5.446201976155862e-05
-3.5191074857721105e-05,2.5950543204089627e-05,-6.9827960942348e-06,4.8161564336623996e-05
-3.9040423871483654e-05,2.2965148673392832e-05,-9.020196557685267e-06,4.673317744163796e-05
-3.696392377605662e-05,2.2924768927623518e-05,-9.331976798421238e-06,4.937149424222298e-05
-3.2379513868363574e-05,2.32869315368589e-05,-7.41916073820903e-06,5.093587242299691e-05
-2.7381369363865815e-05,1.9948054614360444e-05,-6.4858418227231596e-06,5.2485269407043234e-05
-2.374141513428185e-05,1.2515515663835686e-05,-9.339390089735389e-06,5.370232611312531e-05
-2.1681114958482794e-05,5.5223144954652525e-06,-1.2232639164722059e-05,5.264636274660006e-05
-2.1574740458163433e-05,1.6173182757484028e-06,-1.0762059901026078e-05,5.2773688366869465e-05
-2.327392576262355e-05,1.2429916296241572e-06,-8.306312338390853e-06,5.626957499771379e-05
-2.5076749807340093e-05,6.055567155272001e-06,-9.579748621035833e-06,5.886529106646776e-05
-2.4433105863863602e-05,9.071734893950634e-06,-1.2290608538023662e-05,5.540450001717545e-05
-2.3177857656264678e-05,1.5375850125565194e-05,-1.5434408851433545e-05,5.0796450523193926e-05
-2.59631997323595e-05,2.6716601496445946e-05,-1.5446265024365857e-05,4.9974332796409726e-05
-2.6413496016175486e-05,2.990356915688608e-05,-1.0512960216146894e-05,5.235535718384199e-05
-1.9573462850530632e-05,2.87405291601317e-05,-6.374769782269141e-06,5.714704457204789e-05
-1.546357452753e-05,2.5226463549188338e-05,-6.440966899390332e-06,5.965621676295996e-05
-1.6616495486232452e-05,2.5714683943078853e-05,-7.915161404525861e-06,6.24972308287397e-05
-2.0739202227559872e-05,3.016426671820227e-05,-9.49974673858378e-06,6.506637146230787e-05
-2.2058567992644385e-05,2.9684306355193257e-05,-1.095720290322788e-05,6.423311424441636e-05
-2.1386042135418393e-05,2.3748014427837916e-05,-8.767873623583e-06,6.598513573408127e-05
-2.37762214965187e-05,1.6256817616522312e-05,-6.2922167671786156e-06,6.819004920544103e-05
-2.730023697949946e-05,1.549176340631675e-05,-7.348556209763046e-06,7.044258381938562e-05
-2.806560769386124e-05,2.0402527297846973e-05,-9.24957657844061e-06,7.181180262705311e-05
-2.5918363462551497e-05,2.346024484722875e-05,-9.708288416732103e-06,6.975877477088943e-05
-2.426872197247576e-05,2.1543910406762734e-05,-9.072466127690859e-06,6.575934094144031e-05
-2.3360014893114567e-05,2.04564566956833e-05,-7.087927770044189e-06,6.306278373813257e-05
-2.4086368284770288e-05,2.472295454936102e-05,-6.012730409565847e-06,6.417016993509606e-05
-2.4224244043580256e-05,3.025630212505348e-05,-7.89203022577567e-06,6.559215398738161e-05
-2.4821445549605414e-05,2.9098158847773448e-05,-1.2056095329171512e-05,6.807828322052956e-05
-2.6285657440894283e-05,2.268860407639295e-05,-1.5707108104834333e-05,7.45172073948197e-05
-2.909709837695118e-05,1.8862412616726942e-05,-1.584626079420559e-05,8.013542537810281e-05
-2.957255310320761e-05,1.9981665900559165e-05,-1.4404341527551878e-05,8.115392120089382e-05
-2.636557474033907e-05,2.49368094955571e-05,-1.422950026608305e-05,7.965882105054334e-05
-2.2747570255887695e-05,3.224087049602531e-05,-1.4837662092759274e-05,7.785395428072661e-05
-2.0891506210318767e-05,3.935399217880331e-05,-1.5468573110410944e-05,7.78942194301635e-05
-2.054231117654126e-05,4.353305121185258e-05,-1.7393409507349133e-05,7.563910912722349e-05
-1.9894461729563773e-05,4.172988701611757e-05,-1.929613426909782e-05,7.218206155812368e-05
-2.1681140424334444e-05,3.2584961445536464e-05,-1.6925449017435312e-05,7.173390622483566e-05
-2.7073920136899687e-05,2.214890264440328e-05,-1.3853825294063427e-05,7.095913315424696e-05
-3.1045638024806976e-05,1.685825554886833e-05,-1.5243303096212912e-05,7.07226136000827e-05
-3.1932704587234184e-05,1.586220423632767e-05,-1.8485152395442128e-05,7.092643500072882e-05
-3.1313658837461844e-05,1.8193870346294716e-05,-1.795701973605901e-05,6.522265903186053e-05
-2.9293923944351263e-05,1.8934493709821254e-05,-1.575736860104371e-05,5.651689934893511e-05
-2.8948406907147728e-05,1.7073367416742258e-05,-1.718548264761921e-05,5.251836046227254e-05
-3.182142972946167e-05,1.3874815522285644e-05,-1.9712484572664835e-05,5.12607948621735e-05
-3.270994056947529e-05,1.142373093898641e-05,-1.833228270697873e-05,5.237617369857617e-05
-3.1758314435137436e-05,1.7489877791376784e-05,-1.4937152627680916e-05,5.613822577288374e-05
-3.2039330108091235e-05,2.3205060642794706e-05,-1.3094840142002795e-05,5.666485958499834e-05
-3.159995685564354e-05,2.228882658528164e-05,-1.1246645044593606e-05,5.428161603049375e-05
-2.8520977139123715e-05,1.8715074475039728e-05,-1.197499022964621e-05,5.3968375141266733e-05
-2.4926010155468248e-05,2.1308276700438e-05,-1.2738721125060692e-05,5.4766049288446084e-05
-2.5600687877158634e-05,2.7168031010660343e-05,-1.108109518099809e-05,5.453973790281452e-05
-2.717971983656753e-05,2.5380357328685932e-05,-6.931665666343179e-06,5.419925582828e-05
-2.571719051047694e-05,1.6023541320464574e-05,-4.2612323341018055e-06,5.364359458326362e-05
-2.4530532755306922e-05,9.739239430928137e-06,-3.575428991098306e-06,5.00871756230481e-05
-2.6376354071544483e-05,1.1307253771519754e-05,-2.6849722871702397e-06,4.756552880280651e-05
-2.8295911761233583e-05,1.7915388525580056e-05,-3.2917891985562164e-06,5.059609975432977e-05
-2.940058766398579e-05,2.3306140064960346e-05,-7.80848949943902e-06,5.378984133130871e-05
-2.938378747785464e-05,2.384689105383586e-05,-1.217354838445317e-05,5.5052227253327146e-05
-2.7368083465262316e-05,2.503128234820906e-05,-9.948495971912052e-06,5.5517113651148975e-05
-2.369148023717571e-05,2.813214814523235e-05,-3.1633833259547828e-06,5.287040039547719e-05
-2.0210658476571552e-05,2.8070489861420356e-05,2.78578522738826e-06,4.691647336585447e-05
-1.9627937945188023e-05,2.6565567168290727e-05,2.4794589990051463e-06,4.066239853273146e-05
-2.1418602045741864e-05,3.103342532995157e-05,1.7469961033356185e-09,3.857220508507453e-05
-2.38079228438437e-05,3.461680535110645e-05,-2.9466550586221274e-06,3.956114233005792e-05
-2.5883535272441804e-05,3.0434754080488347e-05,-4.788196292793145e-06,4.19282223447226e-05
-2.7072190277976915e-05,2.690476321731694e-05,-1.8237624317407608e-06,4.6354438381968066e-05
-2.987167681567371e-05,3.145269874949008e-05,2.2305496258923085e-06,5.0947546696988866e-05
-3.271987952757627e-05,3.088494486291893e-05,1.342360292255762e-06,4.89449521410279e-05
-3.055500928894617e-05,2.0398671040311456e-05,-2.8805837359868747e-07,4.521203300100751e-05
-2.3914048142614774e-05,1.5387962776003405e-05,2.2848131209229905e-07,4.967706627212465e-05
-2.1604264475172386e-05,1.9482218704069965e-05,1.09051313756936e-06,5.6109802244463935e-05
-2.58475720329443e-05,2.3399816200253554e-05,1.1713171943483758e-06,5.783832602901384e-05
-2.9353970603551716e-05,2.692646194191184e-05,-2.1935256881988607e-06,5.4883345001144335e-05
-2.942601167887915e-05,2.7716932891053148e-05,-4.780780272994889e-06,5.25695868418552e-05
-2.8541988285724074e-05,2.4410233891103417e-05,-8.66067125571135e-07,5.259325553197414e-05
-2.900783329096157e-05,1.661510941630695e-05,3.3945821087399963e-06,5.620409137918614e-05
-2.8430784368538298e-05,1.1821312909887638e-05,1.0451624348206678e-06,6.011972072883509e-05
-2.7872516511706635e-05,1.2963304470758885e-05,-2.7873923045262927e-06,6.485130143119022e-05
-2.8814221877837554e-05,1.1707836165442131e-05,-1.895064087875653e-06,6.901495362399146e-05
-2.8100601412006654e-05,1.0589960766083095e-05,2.2144633931020508e-06,6.844161543995142e-05
-2.46248600888066e-05,1.7247952200705186e-05,6.124565970822005e-06,6.450303771998733e-05
-2.361769111303147e-05,3.005628786922898e-05,5.145519935467746e-06,6.178725743666291e-05
-2.4539413061575033e-05,3.637907866504975e-05,-1.1425848924773163e-06,6.303510599536821e-05
-2.29722627409501e-05,3.4202264941995963e-05,-6.264571766223526e-06,6.350718467729166e-05
-2.0359739210107364e-05,2.9483255275408737e-05,-7.702891707594972e-06,6.259445945033804e-05
-2.0859479263890535e-05,2.4078077331068926e-05,-8.2426231529098e-06,6.238456990104169e-05
-2.2027472368790768e-05,1.9326080291648395e-05,-1.0119504622707609e-05,6.273086910368875e-05
-2.0641049559344538e-05,2.0255023628124036e-05,-1.2594172403623816e-05,6.231698353076354e-05
-2.082065293507185e-05,2.9187247491790913e-05,-1.4750259651918896e-05,6.337133527267724e-05
-2.3577020328957587e-05,4.1073799366131425e-05,-1.3889338333683554e-05,6.282907270360738e-05
-2.593583303678315e-05,4.3588785047177225e-05,-1.0773708709166385e-05,5.82056563871447e-05
-3.033208668057341e-05,3.5115794162265956e-05,-1.2287118806852959e-05,5.401088856160641e-05
-3.5413209843682125e-05,2.8199687221786007e-05,-1.6282550859614275e-05,5.313920337357558e-05
-3.7739358958788216e-05,3.7087367672938854e-05,-1.8310051018488593e-05,5.2099425374763086e-05
-3.809915142483078e-05,5.179108848096803e-05,-1.693849299044814e-05,4.782412725035101e-05
-3.62002792826388e-05,5.410179073805921e-05,-1.6106501789181493e-05,4.648886897484772e-05
-3.4806209441740066e-05,4.2106305045308545e-05,-1.7758717149263248e-05,4.7161320253508165e-05
-3.502193067106418e-05,2.858592415577732e-05,-1.767719368217513e-05,5.069631879450753e-05
-3.767822636291385e-05,3.093226769124158e-05,-1.5075498595251702e-05,5.7239118177676573e-05
-4.0564518712926656e-05,3.6346271372167394e-05,-1.2060092558385804e-05,6.006331022945233e-05
-3.769710747292265e-05,3.257169737480581e-05,-1.3193602171668317e-05,6.500994641100988e-05
-3.0617193260695785e-05,2.521153146517463e-05,-1.455075016565388e-05,6.624511297559366e-05
-2.740790841926355e-05,1.9414104826864786e-05,-1.593468005012255e-05,6.227098492672667e-05
-2.723435318330303e-05,2.2584141333936714e-05,-1.537114985694643e-05,5.817342389491387e-05
-2.681109617697075e-05,3.003068923135288e-05,-1.3347171261557378e-05,5.8643541706260294e-05
-2.6229516151943244e-05,3.3416883525205776e-05,-1.2940630767843686e-05,5.978485933155753e-05
-2.34364670177456e-05,3.055888373637572e-05,-1.5915209587546997e-05,5.984079325571656e-05
-2.06773493118817e-05,2.5278008251916617e-05,-2.0255291019566357e-05,6.003751695971005e-05
-2.3302127374336123e-05,2.281081469845958e-05,-2.0480858438531868e-05,6.08029768045526e-05
-2.8231183023308404e-05,2.448595841997303e-05,-1.674163286224939e-05,6.304589624051005e-05
-2.893216151278466e-05,2.9251665182528086e-05,-1.1871650713146664e-05,6.134565774118528e-05
