-4.1209095797967166e-05,3.620310599217191e-05,-2.4876870156731457e-05,2.0616143956431188e-05
-5.2832649089396e-05,2.870196294679772e-05,-2.4749739168328233e-05,1.614694883755874e-05
-6.029597716405988e-05,2.4238597688963637e-05,-2.4709510398679413e-05,1.375943702441873e-05
-6.0691516409860924e-05,2.0472869437071495e-05,-2.3288148440769874e-05,1.4088700481806882e-05
-6.179507909109816e-05,1.4451673450821545e-05,-2.0556908566504717e-05,1.534659713797737e-05
-6.193875015014783e-05,1.47491336974781e-05,-1.8120650565833785e-05,1.561553835927043e-05
-5.900359610677697e-05,2.374551331740804e-05,-2.0640294678742066e-05,1.607012927706819e-05
-5.479405808728188e-05,3.696127168950625e-05,-2.144007339666132e-05,1.6721911379136145e-05
-5.3697342082159594e-05,4.7653287765569985e-05,-2.0730858523165807e-05,1.9212355255149305e-05
-5.414754923549481e-05,4.7263205487979576e-05,-1.7536949599161744e-05,2.2102658476796933e-05
-4.9262973334407434e-05,4.0084985812427476e-05,-1.5195194464467932e-05,2.5518102120258845e-05
-4.058901686221361e-05,3.829401975963265e-05,-1.5455379980267026e-05,3.103604103671387e-05
-3.544548599165864e-05,4.158209776505828e-05,-1.7726495570968837e-05,3.4399541618768126e-05
-3.517471850500442e-05,4.1357514419360086e-05,-2.1850997654837556e-05,3.3097530831582844e-05
-3.604889934649691e-05,3.579237818485126e-05,-2.619145016069524e-05,3.0396606234717183e-05
-3.523637496982701e-05,2.86407012026757e-05,-2.537171167205088e-05,3.102345363004133e-05
-3.3872864150907844e-05,2.262233101646416e-05,-2.1015182937844656e-05,3.445423863013275e-05
-3.660208676592447e-05,1.9246708689024672e-05,-2.064622094621882e-05,3.438899148022756e-05
-4.34065077570267e-05,1.899731250887271e-05,-2.0564801161526702e-05,2.942873106803745e-05
-4.7310877562267706e-05,2.125474566128105e-05,-1.8760683815344237e-05,2.5010191166074947e-05
-4.5076783862896264e-05,2.4269756977446377e-05,-1.6973041056189686e-05,2.3324839276028797e-05
-4.222515053697862e-05,2.594733814476058e-05,-1.6638288798276335e-05,2.2219255697564222e-05
-4.330161027610302e-05,2.400832818238996e-05,-1.7744952856446616e-05,2.293636316608172e-05
-4.518844798440114e-05,2.341685103601776e-05,-2.216443681390956e-05,2.492127168807201e-05
-4.149812230025418e-05,2.6723635528469458e-05,-2.690622022782918e-05,2.3027931092656218e-05
-3.958044544560835e-05,3.105627547483891e-05,-2.735662565100938e-05,1.968744254554622e-05
-4.524690666585229e-05,3.790666232816875e-05,-2.5799932700465433e-05,1.8976739738718607e-05
-5.1464896387187764e-05,4.5519849663833156e-05,-2.8762899091816507e-05,1.897744914458599e-05
-5.416802741819993e-05,4.473045555641875e-05,-3.068653677473776e-05,2.0589350242516957e-05
-5.600886288448237e-05,3.730116077349521e-05,-2.8258726160856895e-05,2.2858304873807356e-05
-6.173084693728015e-05,2.7504825993673876e-05,-2.440315620333422e-05,2.1924299289821647e-05
-6.252193270483986e-05,2.0274459529900923e-05,-2.5172406822093762e-05,2.0362593204481527e-05
-5.879476884729229e-05,1.8677223124541342e-05,-3.1789339118404314e-05,1.6602656614850275e-05
-5.252166374702938e-05,1.680732748354785e-05,-3.2614119845675305e-05,1.2342267837084364e-05
-4.235814412822947e-05,2.0327164747868665e-05,-2.8666727303061634e-05,1.0342959285480902e-05
-3.4324715670663863e-05,2.642505569383502e-05,-2.674752613529563e-05,1.0893487342400476e-05
-3.026087324542459e-05,2.547170879552141e-05,-2.460786527080927e-05,1.1664970770652872e-05
-2.6133120627491735e-05,1.9742634322028607e-05,-2.033958116953727e-05,1.0974645192618482e-05
-2.2165384507388808e-05,2.0335157387307845e-05,-1.6568154023843817e-05,1.0940820175164845e-05
-2.299477819178719e-05,2.871895776479505e-05,-1.5727999198134057e-05,1.5383749996544793e-05
-2.7306787160341628e-05,3.745180947589688e-05,-1.6465750377392396e-05,2.358649180678185e-05
-3.2785294024506584e-05,4.206403536954895e-05,-1.5055867152113933e-05,2.7401540137361735e-05
-3.7217072531348094e-05,4.105994958081283e-05,-1.264200091100065e-05,2.4476768885506317e-05
-3.960870890296064e-05,3.6412831832421944e-05,-1.1499862921482418e-05,1.955894913407974e-05
-4.291378354537301e-05,3.2956664654193446e-05,-1.1539227671164554e-05,1.6804082406451926e-05
-5.2695981139549986e-05,3.698239743243903e-05,-1.3000114449823741e-05,1.6411506294389255e-05
-6.15759490756318e-05,4.2882402340183035e-05,-1.5907473425613716e-05,1.913713276735507e-05
-6.392849172698334e-05,4.233187064528465e-05,-1.9954999515903182e-05,2.2434969650930725e-05
-6.408807530533522e-05,3.676735650515184e-05,-2.285863047291059e-05,2.239686727989465e-05
-6.210681021912023e-05,3.576718154363334e-05,-2.3430889996234328e-05,1.8543269106885418e-05
-5.750763739342801e-05,4.5239172322908416e-05,-2.4805753128021024e-05,1.733914359647315e-05
-5.548584886128083e-05,5.850883826497011e-05,-2.623471118567977e-05,1.9786046323133633e-05
-5.7212007959606126e-05,6.358836981235072e-05,-2.9193097361712717e-05,2.163691897294484e-05
-5.694415085599758e-05,5.6461081840097904e-05,-3.1395702535519376e-05,2.4162460249499418e-05
-5.196114580030553e-05,4.472039290703833e-05,-2.8203759939060546e-05,2.6519217499298975e-05
-4.863981666858308e-05,3.863736128550954e-05,-2.48039959842572e-05,2.4312717869179323e-05
-4.960074875270948e-05,3.4182350646005943e-05,-2.2252539565670304e-05,1.8473034288035706e-05
-4.687549517257139e-05,2.4884942831704393e-05,-2.471061270625796e-05,1.55335474119056e-05
-4.417742457007989e-05,1.5137939954001922e-05,-3.0039223929634318e-05,1.7537282474222593e-05
-4.456913302419707e-05,1.2314814739511348e-05,-3.226846820325591e-05,1.9176362911821343e-05
-4.794324195245281e-05,1.37524448291515e-05,-3.104833376710303e-05,2.1253968952805735e-05
-5.408590004662983e-05,1.274710211873753e-05,-2.7643147404887713e-05,2.488664904376492e-05
-5.549694105866365e-05,9.213414159603417e-06,-2.9177943360991776e-05,2.6446523406775668e-05
-5.2290801249910146e-05,5.111424343340332e-06,-3.465460758889094e-05,2.591539487184491e-05
-4.9368572945240885e-05,7.324851139856037e-06,-3.66681742889341e-05,2.4595414288342e-05
-5.057110683992505e-05,1.8719048966886476e-05,-3.2866577384993434e-05,2.4322465833392926e-05
-5.495826553669758e-05,3.1725892768008634e-05,-3.0444305593846366e-05,2.5665714929345995e-05
-5.668311132467352e-05,3.945709249819629e-05,-3.2113621273310855e-05,2.5915742298820987e-05
-5.459476597025059e-05,4.2023308196803555e-05,-3.650125290732831e-05,2.4772400138317607e-05
-5.311614950187504e-05,3.742814078577794e-05,-3.8461566873593256e-05,2.367274100834038e-05
-5.320040509104729e-05,2.930047230620403e-05,-3.5237946576671675e-05,2.3898775907582603e-05
-5.311844506650232e-05,2.929801121354103e-05,-2.9784599973936565e-05,2.689902248675935e-05
-5.0600527174538e-05,3.710184682859108e-05,-2.6168523618252948e-05,2.9279679438332096e-05
-4.852941128774546e-05,3.901962554664351e-05,-2.6236184567096643e-05,2.8546852263389155e-05
-4.9580863560549915e-05,3.18006677844096e-05,-2.751274951151572e-05,2.668935849214904e-05
-4.7872934374026954e-05,2.0492445401032455e-05,-2.7796855647466145e-05,2.4559016310377046e-05
-4.278462802176364e-05,4.828231340070488e-06,-2.7718588171410374e-05,2.255006620544009e-05
-3.808277688222006e-05,-1.7266762370127253e-05,-3.049679617106449e-05,2.282629611727316e-05
-3.4874385164584965e-05,-3.96251525671687e-05,-3.2316616852767766e-05,2.533100632717833e-05
-3.297438524896279e-05,-5.1586444897111505e-05,-2.969367960758973e-05,2.6598854674375616e-05
-3.2525182177778333e-05,-4.804605123354122e-05,-2.690862129384186e-05,2.5831082894001156e-05
-3.890825973940082e-05,-3.261546589783393e-05,-2.595577279862482e-05,2.3564185539726168e-05
-4.691441426984966e-05,-1.34390074890689e-05,-2.630548806337174e-05,2.0891222447971813e-05
-4.582837573252618e-05,8.794397217570804e-06,-2.5883735361276194e-05,2.0029267034260556e-05
-4.401004480314441e-05,2.8580156140378676e-05,-2.4505901819793507e-05,1.969833465409465e-05
-4.874562000622973e-05,4.576365608954802e-05,-2.5838407964329235e-05,1.8910672224592417e-05
-5.6159915402531624e-05,6.12582589383237e-05,-2.810572914313525e-05,1.6419797248090617e-05
-5.650130333378911e-05,6.9097412051633e-05,-2.879807107092347e-05,1.660901943978388e-05
-4.908273331238888e-05,7.011691923253238e-05,-2.7539912480278872e-05,2.1096653654240072e-05
-4.09379972552415e-05,6.809722981415689e-05,-2.8244443456060253e-05,2.5776156689971685e-05
-3.6986893974244595e-05,6.906354974489659e-05,-3.044599543500226e-05,2.721923192439135e-05
-3.9229857065947726e-05,7.563445251435041e-05,-3.1239105737768114e-05,2.5169134460156783e-05
-4.573569822241552e-05,8.484435238642618e-05,-2.998869058501441e-05,2.3961003535077907e-05
-5.522652281797491e-05,8.989052003016695e-05,-2.8413078325684182e-05,2.6303039703634568e-05
-6.563266651937738e-05,8.86135603650473e-05,-2.678171767911408e-05,2.8040834877174348e-05
-7.581782847410068e-05,8.39692511362955e-05,-2.391405541857239e-05,2.7032710931962356e-05
-8.272664854303002e-05,8.211492968257517e-05,-1.8808406821335666e-05,2.5636367354309186e-05
-8.389740105485544e-05,8.544170850655064e-05,-1.543794132885523e-05,2.584987123555038e-05
-7.902786455815658e-05,8.96448182174936e-05,-1.877278191386722e-05,2.7897995096282102e-05
-6.969750393182039e-05,8.39679196360521e-05,-2.5062259737751447e-05,2.9745848223683424e-05
-6.107520312070847e-05,6.498612492578104e-05,-2.7777899958891794e-05,3.0060489734751172e-05
-5.923870048718527e-05,4.3566833483055234e-05,-2.6916894057649188e-05,2.752409636741504e-05
-6.221429066499695e-05,3.273455149610527e-05,-2.7875510568264872e-05,2.3219470676849596e-05
-6.545345240738243e-05,3.638668931671418e-05,-2.89825056825066e-05,2.085080814140383e-05
-6.337574450299144e-05,4.4318247091723606e-05,-2.857841354853008e-05,2.298892468388658e-05
-5.671082544722594e-05,4.159945819992572e-05,-2.5004435883602127e-05,2.578041130618658e-05
-5.328778570401482e-05,2.9332419217098504e-05,-2.118871452694293e-05,2.668660818017088e-05
-5.439171945909038e-05,2.005135866056662e-05,-2.1726884369854815e-05,2.8247681257198565e-05
-5.269549728836864e-05,1.4383133930095937e-05,-2.1049756469437853e-05,3.193718657712452e-05
-4.456639362615533e-05,1.4131643183645792e-05,-1.81144514499465e-05,3.523874329403043e-05
-4.049477865919471e-05,1.7339914847980253e-05,-1.7637597920838743e-05,3.681737871374935e-05
-4.597324368660338e-05,1.5886840628809296e-05,-2.225276875833515e-05,3.717767322086729e-05
-5.3666393796447664e-05,7.405391443171538e-06,-2.8582171580637805e-05,3.338195165270008e-05
-5.679670721292496e-05,3.800260628850083e-06,-3.190488132531755e-05,2.767765909084119e-05
-5.881654578843154e-05,1.0434529031044804e-05,-3.084617856075056e-05,2.5400371669093147e-05
-5.843338658451103e-05,1.8242559235659428e-05,-2.879365456465166e-05,2.5384579203091562e-05
-5.25226496392861e-05,2.423915793769993e-05,-3.0478593544103205e-05,2.637717261677608e-05
-4.492142761591822e-05,2.5683448257041164e-05,-3.1198364013107494e-05,2.3392998627969064e-05
-3.7906367651885375e-05,2.2911734049557708e-05,-2.993632006109692e-05,2.0108009266550653e-05
-3.0054672606638633e-05,2.01136244868394e-05,-2.9883745810366236e-05,2.142671655747108e-05
-2.5161265511997044e-05,1.8320875824429095e-05,-3.2003790693124756e-05,2.4569630113546737e-05
-2.9314604034880176e-05,1.6719028280931525e-05,-3.431137520237826e-05,2.6379286282463e-05
-3.845509854727425e-05,1.4122619177214801e-05,-3.482497049844824e-05,2.7025029339711182e-05
-4.328371142037213e-05,8.747309948375914e-06,-3.286311402916908e-05,2.622989450173918e-05
-4.378395533422008e-05,1.9771302959270542e-06,-3.0385761419893242e-05,2.2298232579487376e-05
-4.672431532526389e-05,-2.472581627444015e-06,-2.9416438337648287e-05,2.0080527974641882e-05
-5.243181294645183e-05,-4.385456577438163e-06,-2.7762234822148457e-05,2.0581546777975745e-05
-5.680325557477772e-05,-3.128863227175316e-06,-2.5522436772007495e-05,2.118976590281818e-05
-5.882715413463302e-05,4.1285361476184335e-06,-2.489196413080208e-05,2.096295247611124e-05
-5.867536674486473e-05,1.4689135241496842e-05,-2.4238246624008752e-05,2.107215186697431e-05
-5.714862345485017e-05,1.8163680579164065e-05,-2.36422783927992e-05,2.323360604350455e-05
-5.61833476240281e-05,1.2422149666235782e-05,-2.3259144654730335e-05,2.5333323719678447e-05
-5.565478204516694e-05,1.0464140359545127e-05,-2.3478174625779502e-05,2.3985492589417845e-05
-5.591619628830813e-05,1.4071226360101718e-05,-3.0028822948224843e-05,2.3597316612722352e-05
-5.338273331290111e-05,1.6309539205394685e-05,-3.535514042596333e-05,2.2478534447145648e-05
-5.418134242063388e-05,2.0585284801200032e-05,-3.1144085369305685e-05,2.102066355291754e-05
-5.683479685103521e-05,3.158351682941429e-05,-2.3401569706038572e-05,2.208551813964732e-05
-5.232169132796116e-05,4.1633513319538906e-05,-2.1753252440248616e-05,2.0852088709943928e-05
-5.196098572923802e-05,4.126795829506591e-05,-2.5832619940047152e-05,1.670857091085054e-05
-5.734271326218732e-05,3.6861889384454116e-05,-2.6387744583189487e-05,1.6485701053170487e-05
-5.661374962073751e-05,3.815433956333436e-05,-2.2075579181546345e-05,1.83933643711498e-05
-5.077223613625392e-05,4.0722647099755704e-05,-1.5713138054707088e-05,1.873008477559779e-05
-4.399019235279411e-05,3.8451737054856494e-05,-1.2304298252274748e-05,2.017167025769595e-05
-4.00163589802105e-05,3.759892933885567e-05,-1.220882131747203e-05,2.0200159269734286e-05
-3.819403355009854e-05,3.8219368434511125e-05,-1.4692942386318464e-05,2.075467273243703e-05
-3.4606215194799006e-05,3.5664041206473485e-05,-1.878143666544929e-05,1.971455458260607e-05
-3.187759284628555e-05,3.26770605170168e-05,-2.1622732674586587e-05,1.838036041590385e-05
-3.295761052868329e-05,3.253384420531802e-05,-2.2424217604566365e-05,1.9817061911453493e-05
-3.568682950572111e-05,3.4731343475868925e-05,-1.9964518287451938e-05,2.2576232368010096e-05
-3.4621363738551736e-05,3.724879934452474e-05,-1.8013795852311887e-05,2.48208234552294e-05
-3.1867806683294475e-05,3.496069257380441e-05,-1.8687884221435525e-05,2.4875274903024547e-05
-3.2877909688977525e-05,2.4958148060250096e-05,-2.1584282876574434e-05,2.421548379061278e-05
-3.6679397453553975e-05,1.4389896023203619e-05,-2.6556697775959037e-05,2.2311087377602234e-05
-4.1278522985521704e-05,1.028185124596348e-05,-3.0011909984750673e-05,2.0183255401207134e-05
-4.761570744449273e-05,1.1053597518184688e-05,-2.759143535513431e-05,2.113119808200281e-05
-5.2388812036952004e-05,1.5489071301999502e-05,-2.4404622308793478e-05,2.482470154063776e-05
-5.49751021026168e-05,2.3600709027959965e-05,-2.2078866095398553e-05,2.8609303626581095e-05
-5.568494088947773e-05,3.0205499570001848e-05,-1.7925785869010724e-05,3.111521800747141e-05
-5.395022890297696e-05,3.769422255572863e-05,-1.5584682842018083e-05,3.3169482776429504e-05
-4.911953510600142e-05,5.0022692448692396e-05,-1.844602775236126e-05,3.312090484541841e-05
-4.6762383135501295e-05,6.238320202101022e-05,-2.2497893951367587e-05,2.850290184142068e-05
-5.2493298426270485e-05,6.809974001953378e-05,-2.4358501832466573e-05,2.418421718175523e-05
-5.925701407250017e-05,7.163566624512896e-05,-2.7789536034106277e-05,1.98149627976818e-05
-5.8233781601302326e-05,7.815905701136217e-05,-2.9098897357471287e-05,2.2208447262528352e-05
-5.2811141358688474e-05,8.006549614947289e-05,-2.6261808670824394e-05,2.8895916329929605e-05
-5.4644660849589854e-05,7.27850929251872e-05,-2.5715860829222947e-05,3.012884917552583e-05
-5.815036638523452e-05,5.917108501307666e-05,-3.0856717785354704e-05,2.6054489353555255e-05
-5.82798857067246e-05,4.7532786993542686e-05,-3.769785325857811e-05,2.169137223972939e-05
-5.2678620704682544e-05,4.4794840505346656e-05,-3.8942875107750297e-05,2.3981769118108787e-05
-4.612707198248245e-05,4.471575084608048e-05,-3.633501546573825e-05,2.7434094590716995e-05
-4.3971696868538857e-05,3.9903592551127076e-05,-3.4790788049576804e-05,2.7388296075514518e-05
-4.274816456018016e-05,3.249761357437819e-05,-3.439606734900735e-05,2.3318691091844812e-05
-4.2579122236929834e-05,2.9081505999783985e-05,-3.223772000637837e-05,1.999519190576393e-05
-4.405520303407684e-05,3.441001899773255e-05,-2.9618058761116117e-05,2.119146301993169e-05
-5.028339001000859e-05,4.2207291699014604e-05,-2.8757547624991275e-05,2.4795981516945176e-05
-5.523026629816741e-05,4.395244104671292e-05,-2.8639478841796517e-05,2.5764125894056633e-05
-5.404924741014838e-05,3.95772913179826e-05,-2.821565794874914e-05,2.43033700826345e-05
-4.965488915331662e-05,3.322519478388131e-05,-2.7058715204475448e-05,2.4022909201448783e-05
-4.797922883881256e-05,2.7209516701987013e-05,-2.7921321816393174e-05,2.4790060706436634e-05
-4.890556738246232e-05,2.349620081076864e-05,-3.060953531530686e-05,2.489122016413603e-05
-4.995839481125586e-05,2.504132680769544e-05,-3.282800389570184e-05,2.527311517042108e-05
-5.36711304448545e-05,3.0512739613186568e-05,-3.276843563071452e-05,2.6386205718154088e-05
-6.016910629114136e-05,3.7622288800776005e-05,-2.9361022825469263e-05,2.639348167576827e-05
-6.38939454802312e-05,4.1430292185395956e-05,-2.4140876121236943e-05,2.6821593564818613e-05
-6.28353955107741e-05,3.9155493141151965e-05,-2.249130375275854e-05,2.6285251806257293e-05
-5.8238510973751545e-05,3.655124601209536e-05,-2.2936308596399613e-05,2.12176819331944e-05
-5.228058580541983e-05,3.332457345095463e-05,-2.1240190108073875e-05,1.7224745533894747e-05
-5.037835944676772e-05,2.4555230993428268e-05,-2.0227382265147753e-05,1.6244635844486766e-05
-5.282051279209554e-05,1.3237478924565949e-05,-2.1938123609288596e-05,1.8501114027458243e-05
-5.2087707445025444e-05,5.407108346844325e-06,-2.090755879180506e-05,2.0242536265868694e-05
-4.55532681371551e-05,8.037141924432945e-06,-2.1219148038653657e-05,1.778676414687652e-05
-3.8826856325613335e-05,1.696184881438967e-05,-2.413765287201386e-05,2.0516206859610975e-05
-3.919321170542389e-05,1.8203092622570693e-05,-2.6586169042275287e-05,2.2472588170785457e-05
-4.819769674213603e-05,1.6008969396352768e-05,-2.7699781639967114e-05,2.137184674211312e-05
-5.449823584058322e-05,1.9388367945794016e-05,-2.331611540284939e-05,2.1166237274883315e-05
-5.0824233767343685e-05,2.444481651764363e-05,-1.8283077224623412e-05,2.023231536441017e-05
-4.3437499698484316e-05,2.5507268219371326e-05,-1.4256197573558893e-05,1.6984717149171047e-05
-4.205172444926575e-05,2.1633848518831655e-05,-1.590667488926556e-05,1.3632009540742729e-05
-4.2192168621113524e-05,1.3189986020734068e-05,-2.162527925975155e-05,1.3000969374843407e-05
-4.018661275040358e-05,5.061181582277641e-06,-2.7852862331201322e-05,1.3052753274678253e-05
-4.2284220398869365e-05,3.073120296903653e-06,-3.114350329269655e-05,1.5172925486695021e-05
-4.526401971816085e-05,5.908931143494556e-06,-3.164135341648944e-05,2.0168743503745645e-05
-4.4071406591683626e-05,5.148593572812388e-06,-3.137489329674281e-05,2.574853897385765e-05
-4.1786173824220896e-05,-2.5646243102528388e-06,-2.8264177672099322e-05,2.9316553991520777e-05
-4.307668496039696e-05,-6.460907115979353e-06,-2.4698194465599954e-05,2.8519720217445865e-05
-4.66990823042579e-05,3.951473104280012e-07,-2.421355020487681e-05,2.366475382586941e-05
-5.379899084800854e-05,1.8087905118591152e-05,-2.7245345336268656e-05,1.905105818877928e-05
-6.488441431429237e-05,4.113452814635821e-05,-3.0472816433757544e-05,1.6702715583960526e-05
-7.256488606799394e-05,5.9733549278462306e-05,-3.182113141519949e-05,2.0221094018779695e-05
-7.445113442372531e-05,7.200075924629346e-05,-3.110014586127363e-05,2.6977240850101225e-05
-7.714729872532189e-05,8.29436830827035e-05,-3.126989759039134e-05,2.8596396077773534e-05
-7.737478881608695e-05,8.630917000118643e-05,-3.1935942388372496e-05,2.299405969097279e-05
-6.688176654279232e-05,7.519471546402201e-05,-2.9623706723214127e-05,1.855083064583596e-05
-5.172393503016792e-05,5.597100971499458e-05,-2.4645947632961906e-05,1.980806337087415e-05
-4.4560336391441524e-05,4.081350198248401e-05,-2.4115915948641486e-05,2.3510185201303102e-05
-4.877608080278151e-05,3.452870805631392e-05,-2.921337181760464e-05,2.5663877750048414e-05
-5.414275801740587e-05,3.0262168365879916e-05,-3.617785114329308e-05,2.223490628239233e-05
-5.237506775301881e-05,2.4574472263338976e-05,-3.7227553548291326e-05,2.1460678908624686e-05
-4.61733689007815e-05,1.864115438365843e-05,-3.213357922504656e-05,2.3724815036985092e-05
-4.352569521870464e-05,1.572888322698418e-05,-2.7041289285989478e-05,2.5565126634319313e-05
-4.725815597339533e-05,1.839138894865755e-05,-2.6249686925439164e-05,2.5471927074249834e-05
-5.2124807552900165e-05,3.289596861577593e-05,-2.64719328697538e-05,2.4274679162772372e-05
-5.14614257554058e-05,5.2993371355114505e-05,-2.331872565264348e-05,2.3192624212242663e-05
-4.75682936666999e-05,6.7629232944455e-05,-1.9934484953409992e-05,1.904165583255235e-05
-4.4455846364144236e-05,7.337767601711676e-05,-1.6877584130270407e-05,1.864882869995199e-05
-4.305624679545872e-05,6.693795148748904e-05,-1.3439270333037712e-05,2.1080075384816155e-05
-4.153332702117041e-05,5.72158933209721e-05,-1.0922900401055813e-05,2.455321555316914e-05
-3.989487231592648e-05,5.245289867161773e-05,-1.1824560715467669e-05,2.7076144760940224e-05
-4.1537219658493996e-05,4.888138209935278e-05,-1.4037124856258743e-05,2.7838183086714707e-05
-4.5153374230721965e-05,3.7532034184550866e-05,-1.46799311551149e-05,2.7897658583242446e-05
-4.431879642652348e-05,2.412081630609464e-05,-1.450264699087711e-05,2.79587311524665e-05
-3.911751991836354e-05,1.8127664588973857e-05,-1.612049891264178e-05,2.9135004297131673e-05
-3.6224832001607865e-05,2.012141158047598e-05,-1.889915620267857e-05,2.973783739435021e-05
-3.830630157608539e-05,3.3014857763191685e-05,-2.3208980564959347e-05,2.8604275939869694e-05
-4.365462518762797e-05,5.719095133827068e-05,-2.80932381429011e-05,2.834051520039793e-05
-4.9811667850008234e-05,7.753052341286093e-05,-2.9064296541037038e-05,2.9026619813521393e-05
-5.8138339227298275e-05,7.965049735503271e-05,-2.687465530470945e-05,2.8119007765781134e-05
-6.506777572212741e-05,6.774233042960986e-05,-2.5270259357057512e-05,2.7259797207079828e-05
-6.397956167347729e-05,4.910329880658537e-05,-2.4022192519623786e-05,2.401368874416221e-05
-5.120921923662536e-05,3.0901774152880535e-05,-2.4369528546230868e-05,2.004313500947319e-05
-3.809480767813511e-05,1.6829191736178473e-05,-2.440134630887769e-05,1.9887087546521798e-05
-3.564254438970238e-05,5.753332516178489e-06,-2.24302366405027e-05,2.267897070851177e-05
-3.741501132026315e-05,-3.0715857519680867e-06,-2.3483589757233858e-05,2.326472895219922e-05
-4.004189759143628e-05,-1.340466860710876e-05,-2.527817377995234e-05,2.2504351363750175e-05
-3.966863005189225e-05,-2.167365892091766e-05,-2.0673211110988632e-05,2.5244416974601336e-05
-3.8709360524080694e-05,-2.2017908122506924e-05,-1.7668477084953338e-05,2.5972307412303053e-05
-4.171707041678019e-05,-1.7592732547200285e-05,-1.829937355068978e-05,2.3876646082499065e-05
-4.633342905435711e-05,-9.71359622781165e-06,-2.0149751435383223e-05,2.642177787492983e-05
-5.011830944567919e-05,6.442093649638991e-07,-2.5055707737919874e-05,2.9699453079956584e-05
-5.0177404773421586e-05,7.751664270472247e-06,-2.86822014459176e-05,3.153708894387819e-05
-5.002885518479161e-05,1.45301382872276e-05,-3.006718361575622e-05,3.169233968947083e-05
-4.880274718743749e-05,2.5980700229411013e-05,-2.912161835411098e-05,2.9698536309297197e-05
-4.600212923833169e-05,3.106848453171551e-05,-2.8939854018972255e-05,2.729645711951889e-05
-4.280589200789109e-05,2.424659214739222e-05,-2.8643480618484318e-05,2.7963704269495793e-05
-4.2256411688867956e-05,1.1453981642262079e-05,-2.6509711460676044e-05,2.860070344468113e-05
-4.5934848458273336e-05,3.7299068935681134e-06,-2.4131084501277655e-05,2.506121927581262e-05
-5.16073196195066e-05,7.436788109771442e-06,-2.579844840511214e-05,2.1472333173733205e-05
-5.7466528232907876e-05,1.6149320799740963e-05,-2.8440248570404947e-05,2.098070217471104e-05
-6.187458347994834e-05,1.7262464098166674e-05,-2.9258908398333006e-05,2.1592797565972432e-05
-6.500704330392182e-05,1.1374079804227222e-05,-3.079482848988846e-05,2.148862404283136e-05
-6.663155363639817e-05,9.281621714762878e-06,-3.300167736597359e-05,2.1602272681775503e-05
-6.86243802192621e-05,1.605652505531907e-05,-3.3968808565987274e-05,2.0282453988329507e-05
-7.036489841993898e-05,2.9165154046495445e-05,-3.20759900205303e-05,1.9196042558178306e-05
-6.886788469273597e-05,4.22997800342273e-05,-2.8005017156829126e-05,1.8095459381584078e-05
-6.456763367168605e-05,5.4713047575205564e-05,-2.5438552256673574e-05,1.685661482042633e-05
-5.818928548251279e-05,6.889874202897772e-05,-2.844323535100557e-05,1.8809607354342006e-05
-5.228631926001981e-05,8.923810673877597e-05,-3.311687396490015e-05,2.3823002265999094e-05
-5.256489748717286e-05,0.00010936961916740984,-3.478292637737468e-05,2.6344558136770502e-05
-5.659009184455499e-05,0.0001156369035015814,-3.517890945659019e-05,2.4557250071666203e-05
-5.93473669141531e-05,0.00010285815369570628,-3.31239280058071e-05,2.1965070118312724e-05
-5.977004911983386e-05,8.113813237287104e-05,-2.8641452445299365e-05,1.9401593817747198e-05
-5.9461242926772684e-05,6.327460869215429e-05,-2.7609332391875796e-05,1.9183844415238127e-05
-6.25884422333911e-05,4.99094276165124e-05,-2.643572588567622e-05,2.102909274981357e-05
-6.33639792795293e-05,4.379093661555089e-05,-2.8872820621472783e-05,2.3172957298811525e-05
-5.795737524749711e-05,4.194932625978254e-05,-3.130299228359945e-05,2.605151712486986e-05
-5.306146340444684e-05,4.149292362853885e-05,-3.235744952689856e-05,2.933771065727342e-05
-5.170066287973896e-05,4.179008101345971e-05,-3.427301999181509e-05,3.0380233511095867e-05
-5.2227092965040356e-05,4.187053127679974e-05,-3.314955756650306e-05,2.705842962313909e-05
-4.824793359148316e-05,5.020160460844636e-05,-3.281909812358208e-05,2.241027686977759e-05
-4.4497490307549015e-05,5.883317135157995e-05,-2.958327968372032e-05,1.780534876161255e-05
-4.4608434109250084e-05,5.689216413884424e-05,-2.581219632702414e-05,1.650302147027105e-05
-4.325023837736808e-05,4.793320840690285e-05,-2.5537845431244932e-05,1.7611697330721654e-05
-4.2229348764522e-05,3.9476271922467276e-05,-2.7965239496552385e-05,1.9316777979838662e-05
-4.599286330631003e-05,3.0313492970890366e-05,-2.7172391128260642e-05,2.039121500274632e-05
-5.014979251427576e-05,1.4426987036131322e-05,-2.1558362277573906e-05,2.1131676476215944e-05
-5.0447513785911724e-05,-1.592623084434308e-05,-1.737449929350987e-05,2.118209158652462e-05
-4.828464807360433e-05,-5.229892849456519e-05,-1.6632584447506815e-05,2.063542342511937e-05
-4.58048380096443e-05,-6.93957699695602e-05,-1.7250466044060886e-05,1.8314429325982928e-05
-4.315813202993013e-05,-6.0489881434477866e-05,-1.6364721886930056e-05,1.4035894309927244e-05
-4.1783921915339306e-05,-3.935645872843452e-05,-1.3069085980532691e-05,1.2928519936394878e-05
-4.5251272240420803e-05,-1.3434126231004484e-05,-1.0179228411288932e-05,1.686861287453212e-05
-4.729178181150928e-05,1.608895581739489e-05,-1.1501184417284094e-05,2.1089181245770305e-05
-4.5842269173590466e-05,4.3139138142578304e-05,-1.6670948753017e-05,2.1085175831103697e-05
-4.7308414650615305e-05,6.0480462707346305e-05,-2.0499093807302415e-05,2.0683542970800772e-05
-4.775906927534379e-05,6.792700878577307e-05,-1.8409196854918264e-05,2.202428731834516e-05
-4.5660864998353645e-05,7.540889782831073e-05,-1.5200027519313153e-05,2.5798977731028572e-05
-5.00187452416867e-05,8.342976070707664e-05,-1.4093674508330878e-05,2.9628559786942787e-05
-5.326985410647467e-05,8.119233825709671e-05,-1.611061998119112e-05,2.8657934308284894e-05
-4.5938126277178526e-05,6.780357944080606e-05,-1.8951421225210652e-05,2.6424504540045746e-05
-3.5881985240848735e-05,5.1935909141320735e-05,-1.9988410713267513e-05,2.6660824005375616e-05
-4.033404911751859e-05,3.562428173609078e-05,-2.5048875613720156e-05,2.7170890462002717e-05
-5.323066216078587e-05,2.32498932746239e-05,-3.1464827770832926e-05,2.7956668418482877e-05
-5.475951184052974e-05,2.000678432523273e-05,-3.56543532689102e-05,2.6339266696595587e-05
-4.570489181787707e-05,2.1267564079607837e-05,-3.7866651837248355e-05,2.3112985218176618e-05
-3.3590633393032476e-05,2.1167892555240542e-05,-3.799221303779632e-05,1.9921712009818293e-05
-2.6059708034154028e-05,2.0402281734277494e-05,-3.7800193240400404e-05,1.8741180610959418e-05
-2.3196282199933194e-05,1.759982478688471e-05,-3.481946623651311e-05,1.8821194316842593e-05
-2.388911525486037e-05,1.3894642506784294e-05,-3.158076651743613e-05,1.9164795958204195e-05
-2.9541302865254693e-05,1.2381604392430745e-05,-3.000671677000355e-05,1.793279079720378e-05
-3.7895712011959404e-05,1.4864726836094633e-05,-3.036692396563012e-05,1.7545235095894895e-05
-4.444548540050164e-05,1.890697421913501e-05,-3.0297307603177615e-05,2.149159445252735e-05
-4.578596417559311e-05,2.0838298951275647e-05,-2.74554895440815e-05,2.7709169444278814e-05
-4.331849777372554e-05,2.052944000752177e-05,-2.2949925551074557e-05,3.256914351368323e-05
-4.180400355835445e-05,2.147467967006378e-05,-2.0738752937177196e-05,3.370055856066756e-05
-4.4365144276525825e-05,2.7596441213972867e-05,-2.21856444113655e-05,3.2380656193709e-05
-4.807186996913515e-05,4.081163206137717e-05,-2.1899653802393004e-05,3.029014987987466e-05
-5.205714114708826e-05,5.659384623868391e-05,-1.7536140148877166e-05,2.9091590477037244e-05
-5.711857011192478e-05,6.693827890558168e-05,-1.3063810001767706e-05,2.8167194614070468e-05
-6.302777183009312e-05,6.387692701537162e-05,-1.4971074961067643e-05,2.458929520798847e-05
-6.569711695192382e-05,4.831600745092146e-05,-2.2875396098243073e-05,1.9839351807604544e-05
-6.255567859625444e-05,3.541440310073085e-05,-2.8717289751512e-05,1.976928615476936e-05
-5.690005127689801e-05,3.1673327612224966e-05,-2.7719097488443367e-05,2.162195414712187e-05
-5.356717883842066e-05,3.127872696495615e-05,-2.2362690287991427e-05,1.9585197151172906e-05
-5.22720547451172e-05,2.898956518038176e-05,-2.0111816411372274e-05,1.7196818589582108e-05
-4.953728785039857e-05,2.2160436856211163e-05,-2.422894976916723e-05,1.7381056750309654e-05
-4.5310938730835915e-05,1.4766699678148143e-05,-2.3918537408462726e-05,1.884624725789763e-05
-4.612380143953487e-05,8.272533705167007e-06,-2.078247780445963e-05,2.2823927793069743e-05
-5.317226532497443e-05,-6.615470624637965e-07,-2.1719863070757128e-05,2.1666070097126067e-05
-5.5831664212746546e-05,-4.421121957420837e-06,-2.2581647499464452e-05,2.1404788640211336e-05
-5.225629865890369e-05,-1.8179815697294543e-06,-2.3542308554169722e-05,2.162045166187454e-05
-5.013744521420449e-05,4.279710992705077e-06,-2.6842832085094415e-05,1.974480619537644e-05
-5.336294270819053e-05,1.274864098377293e-05,-2.7072868761024438e-05,2.04672287509311e-05
-5.435798448161222e-05,2.2139129214338027e-05,-2.578251951490529e-05,2.459303505020216e-05
-4.9755941290641204e-05,2.598206810944248e-05,-2.3673363102716394e-05,2.9247739803395234e-05
-4.2518964619375765e-05,2.7952628443017602e-05,-1.9624121705419384e-05,2.9489034204743803e-05
-3.9225167711265385e-05,3.475150151643902e-05,-1.886703830678016e-05,3.0015917218406685e-05
-3.997147723566741e-05,4.413378701428883e-05,-2.1537820430239663e-05,3.0618168239016086e-05
-4.011790224467404e-05,4.7812489356147125e-05,-2.2942327632335946e-05,3.2150925107998773e-05
-4.009174881502986e-05,4.939230711897835e-05,-2.1437535906443372e-05,3.418360574869439e-05
-4.0920149331213906e-05,5.842192331328988e-05,-2.0146024326095358e-05,3.528487286530435e-05
-4.203177013550885e-05,7.000067125773057e-05,-1.9919361875508912e-05,3.545542131178081e-05
-4.4138192606624216e-05,7.892683788668364e-05,-2.3227934434544295e-05,3.516946890158579e-05
-4.943800740875304e-05,8.275916479760781e-05,-3.0409559258259833e-05,3.263465623604134e-05
-5.676595901604742e-05,7.851455302443355e-05,-3.72113827324938e-05,2.963635779451579e-05
-6.641559593845159e-05,6.51510781608522e-05,-4.0091443224810064e-05,2.921186933235731e-05
-7.539919170085341e-05,4.938047641189769e-05,-3.8497408240800723e-05,3.112483682343736e-05
-8.183855970855802e-05,3.3268690458498895e-05,-3.470792216830887e-05,2.9992375857545994e-05
-8.190864900825545e-05,2.2900394469616003e-05,-3.168616603943519e-05,2.5094966986216605e-05
-7.724969327682629e-05,2.250495890621096e-05,-3.2557021768298e-05,2.2555890609510243e-05
-7.75853986851871e-05,2.3174363377620466e-05,-3.6727655242430046e-05,2.2328278646455146e-05
-7.907392136985436e-05,1.941159280249849e-05,-4.05385326303076e-05,2.107354339386802e-05
-7.499839557567611e-05,9.422091352462303e-06,-4.3883945181733e-05,1.9729875930352136e-05
-6.27872213954106e-05,-3.6044434637005907e-06,-4.2684157961048186e-05,2.208217847510241e-05
-5.024377242079936e-05,-4.907078164251288e-06,-3.9363290852634236e-05,2.513408981030807e-05
-4.8055102524813265e-05,8.076111953414511e-06,-4.0624501707497984e-05,2.4847686290740967e-05
-5.37072955921758e-05,2.9373237339314073e-05,-4.525591793935746e-05,2.188188227592036e-05
-6.073805343476124e-05,4.2151074012508616e-05,-4.697362601291388e-05,2.2189160517882556e-05
-5.942613643128425e-05,3.91025205317419e-05,-4.3089024984510615e-05,2.2836471543996595e-05
-5.440256427391432e-05,3.0474910090561025e-05,-3.763102358789183e-05,1.951184094650671e-05
-5.5082826293073595e-05,2.953016883111559e-05,-3.3009877370204777e-05,1.5041415281302761e-05
-6.0570691857719794e-05,4.366922075860202e-05,-2.8797430786653422e-05,1.33069124785834e-05
-6.208697595866397e-05,5.813546886201948e-05,-2.6065841666422784e-05,1.699485983408522e-05
-6.132588896434754e-05,6.141003541415557e-05,-2.5514827939332463e-05,2.1011415810789913e-05
-6.220165960257873e-05,5.8456629631109536e-05,-2.648783993208781e-05,2.060514088952914e-05
-6.010385914123617e-05,5.571387737290934e-05,-2.5717485186760314e-05,1.8730477677308954e-05
-5.573302769334987e-05,4.898109182249755e-05,-2.2036472728359513e-05,2.025207686529029e-05
-5.171791053726338e-05,3.20695799018722e-05,-1.9802708266070113e-05,2.1013067453168333e-05
-4.99322013638448e-05,7.536047178291483e-06,-2.1688774722861126e-05,1.953365972440224e-05
-5.0101523811463267e-05,-1.4718179045303259e-05,-2.6352767235948704e-05,1.8351482140133157e-05
-4.924369204672985e-05,-2.5167908461298794e-05,-3.0001625418663025e-05,1.800623067538254e-05
-4.316116246627644e-05,-2.1117082724231295e-05,-2.935561496997252e-05,1.9414528651395813e-05
-3.485675188130699e-05,-9.330266038887203e-06,-2.3803664589649998e-05,2.0521203623502515e-05
-2.9027831260464154e-05,-2.6825947685438223e-08,-2.0128210962866433e-05,1.8746661226032302e-05
-2.717705865507014e-05,3.717780145962024e-06,-2.123964804923162e-05,1.5911788068478927e-05
-2.559555105108302e-05,1.0362065040681046e-05,-2.2351507141138427e-05,1.8259208445670083e-05
-2.7046498871641234e-05,2.1416259187390096e-05,-1.908204285427928e-05,2.1542999093071558e-05
-3.243845276301727e-05,2.5973296942538582e-05,-1.4642047972301953e-05,2.3224865799420513e-05
-3.610094063333236e-05,2.449759267619811e-05,-1.4256044778448995e-05,2.5587745767552406e-05
-3.954522617277689e-05,2.221239628852345e-05,-1.54494155140128e-05,2.2882655684952624e-05
-3.9736562030157074e-05,2.0939596652169712e-05,-1.5159968825173564e-05,2.1038025806774385e-05
-3.785226363106631e-05,2.1343141270335764e-05,-1.8263006495544687e-05,2.2102547518443316e-05
-4.0390983485849574e-05,2.3547076125396416e-05,-1.9832823454635218e-05,2.084072184516117e-05
-4.5267781388247386e-05,2.738194052653853e-05,-1.8152870325138792e-05,2.060949191218242e-05
-5.003817204851657e-05,2.8262420528335497e-05,-1.8763777916319668e-05,2.0925786884617992e-05
-5.0404105422785506e-05,2.9740662284893915e-05,-1.893814442155417e-05,1.7826241673901677e-05
-4.6713597839698195e-05,3.302634650026448e-05,-1.8792430637404323e-05,1.4744368854735512e-05
-4.462063225219026e-05,3.616510730353184e-05,-2.0186324036330916e-05,1.4366449249791913e-05
-4.80105409224052e-05,3.3648026146693155e-05,-2.532211146899499e-05,1.706766488496214e-05
-5.3541178203886375e-05,2.994582428073045e-05,-2.972894253616687e-05,2.1326264686649665e-05
-5.455884092953056e-05,3.222569284844212e-05,-2.9537734008044936e-05,2.189136648667045e-05
-4.9159862101078033e-05,3.69426270481199e-05,-2.5420345991733484e-05,1.9763834643526934e-05
-4.3344371079001576e-05,3.979306711698882e-05,-2.298532308486756e-05,1.7923806808539666e-05
-4.201591946184635e-05,3.896221096510999e-05,-2.509981823095586e-05,1.9220989997847937e-05
-4.405067375046201e-05,3.674997788039036e-05,-2.7776457500294782e-05,2.144154677807819e-05
-4.5747226977255195e-05,3.632824154919945e-05,-2.7480737117002718e-05,2.2906591766513884e-05
-4.364075721241534e-05,3.962358823628165e-05,-2.584663343441207e-05,2.51239489443833e-05
-3.884261241182685e-05,4.516869012149982e-05,-2.4158534870366566e-05,2.755911737040151e-05
-3.5726272471947595e-05,5.083323776489124e-05,-2.26307656703284e-05,2.790453982015606e-05
-3.692698373924941e-05,5.09190431330353e-05,-2.1261263100313954e-05,2.8194332116981968e-05
-3.690277662826702e-05,4.547466232907027e-05,-1.8053566236631013e-05,2.8816850317525677e-05
-3.269022636231966e-05,3.857033880194649e-05,-1.8477809135220014e-05,2.6060824893647805e-05
-2.6336971131968312e-05,3.690820813062601e-05,-2.347552617720794e-05,2.4005910745472647e-05
-2.4021812350838445e-05,4.377754885354079e-05,-2.5866869691526517e-05,2.999927892233245e-05
-2.7081006919615902e-05,4.7133438783930615e-05,-2.2757149054086767e-05,3.838049451587722e-05
-2.978677730425261e-05,3.940015085390769e-05,-2.0398671040311456e-05,4.128762520849705e-05
-3.052390457014553e-05,2.529045013943687e-05,-2.5994693714892492e-05,3.928969454136677e-05
-3.140326225548051e-05,4.907757556793513e-06,-2.924910222645849e-05,3.7257676012814045e-05
-3.137819658149965e-05,-1.9778959540417418e-05,-2.5287934477091767e-05,3.573543654056266e-05
-3.4432930988259614e-05,-3.887274579028599e-05,-2.24551167775644e-05,3.243002720410004e-05
-4.5367505663307384e-05,-4.5686021621804684e-05,-2.5046885639312677e-05,2.98466893582372e-05
-5.60132393729873e-05,-3.878208372043446e-05,-2.7067308110417798e-05,2.765413410088513e-05
-6.149627733975649e-05,-2.4093440515571274e-05,-2.428761035844218e-05,2.716710696404334e-05
-5.843508188263513e-05,-9.76739374891622e-06,-2.295694503118284e-05,2.9341203116928227e-05
-5.120218702359125e-05,9.154033250524662e-06,-2.1731008018832654e-05,3.151420969516039e-05
-5.141945439390838e-05,3.787716195802204e-05,-2.196795685449615e-05,2.8375670808600262e-05
-5.525682354345918e-05,7.445392839144915e-05,-2.3531531041953713e-05,2.226596734544728e-05
-5.677968874806538e-05,0.00010249552724417299,-2.684055652935058e-05,1.927624543895945e-05
-5.698975292034447e-05,0.00011231147072976455,-2.863893132598605e-05,1.9784025425906293e-05
-5.91157513554208e-05,0.00010961078805848956,-2.7573954866966233e-05,2.0775631128344685e-05
-5.920133480685763e-05,0.0001025354940793477,-2.514659172447864e-05,1.9896571757271886e-05
-5.472881821333431e-05,9.069207590073347e-05,-2.5214956622221507e-05,1.7932197806658223e-05
-5.102411159896292e-05,7.72316416259855e-05,-2.5960869606933556e-05,1.963984868780244e-05
-5.2412939112400636e-05,7.351511885644868e-05,-2.4853216018527746e-05,2.4920213036239147e-05
-5.671863254974596e-05,7.620872929692268e-05,-2.6005089239333756e-05,2.7264524760539643e-05
-6.148466491140425e-05,7.250878115883097e-05,-2.8865222702734172e-05,2.539052911743056e-05
-6.364103319356218e-05,6.526629294967279e-05,-2.9682692911592312e-05,2.338249032618478e-05
-6.360635597957298e-05,6.414237577700987e-05,-2.8793498131562956e-05,2.31726880883798e-05
-6.724923150613904e-05,6.302475958364084e-05,-3.1906623917166144e-05,2.4337290597031824e-05
-6.975743599468842e-05,5.6205797591246665e-05,-3.3975698897847906e-05,2.507759927539155e-05
-6.650687282672152e-05,4.233169602230191e-05,-2.7018792025046423e-05,2.7448546461528167e-05
-6.050247247912921e-05,2.9498320145648904e-05,-2.0527681044768542e-05,2.8564903914229944e-05
-5.880850585526787e-05,2.271455741720274e-05,-2.448956911393907e-05,2.414747723378241e-05
-5.787243935628794e-05,1.7995989765040576e-05,-3.232067319913767e-05,2.0691048121079803e-05
-5.2317060180939734e-05,1.4786854080739431e-05,-3.594205918489024e-05,2.2513662770506926e-05
-4.8445144784636796e-05,1.6179887097678147e-05,-3.28121313941665e-05,2.6000399884651415e-05
-4.842274938710034e-05,1.349777630821336e-05,-3.0005980079295114e-05,2.7916899853153154e-05
-5.198670260142535e-05,6.565849162143422e-06,-2.9403186999843456e-05,3.0987477657618e-05
-5.868368680239655e-05,6.69727114654961e-06,-3.0159291782183573e-05,2.7162783226231113e-05
-6.779583782190457e-05,1.2555632565636188e-05,-2.876945654861629e-05,1.7283984561800025e-05
-7.970452861627564e-05,1.8811859263223596e-05,-2.647687870194204e-05,1.0872276106965728e-05
-8.850055019138381e-05,2.745600613707211e-05,-2.4564042178099044e-05,9.550120921630878e-06
-8.67605340317823e-05,3.892747190548107e-05,-2.615343692013994e-05,1.1717567758751102e-05
-7.812693365849555e-05,5.122721995576285e-05,-2.8120008209953085e-05,1.4222643585526384e-05
-7.208059832919389e-05,5.9232112107565627e-05,-2.76663795375498e-05,1.6827485524117947e-05
-6.82966347085312e-05,5.8199559134664014e-05,-2.461656549712643e-05,1.8483442545402795e-05
-6.08209811616689e-05,5.235848220763728e-05,-2.0499346646829508e-05,1.7564314475748688e-05
-5.1394257752690464e-05,5.1836039347108454e-05,-1.6711128409951925e-05,1.7008718714350834e-05
-4.174116475041956e-05,5.8366917073726654e-05,-1.4375684258993715e-05,2.0326328012743033e-05
-3.2095995265990496e-05,6.517572910524905e-05,-1.614914981473703e-05,2.726378988882061e-05
-2.876604048651643e-05,7.067288242978975e-05,-2.1216936147538945e-05,3.211185321561061e-05
-3.4503966162446886e-05,7.481873035430908e-05,-2.6712374165072106e-05,2.975742427224759e-05
-3.988641037722118e-05,7.076835754560307e-05,-2.7448832042864524e-05,2.5674567950773053e-05
-3.786793240578845e-05,5.0038706831401214e-05,-2.7374520868761465e-05,2.45036408159649e-05
-3.550628753146157e-05,1.9186727513442747e-05,-2.7830819817609154e-05,2.7282161681796424e-05
-3.747975279111415e-05,-8.880175300873816e-06,-2.863850568246562e-05,3.217901394236833e-05
-4.315047772252001e-05,-1.9909011825802736e-05,-3.0637809686595574e-05,3.518625453580171e-05
-4.816542423213832e-05,-1.3374132322496735e-05,-3.322490374557674e-05,3.5409146221354604e-05
-4.806500510312617e-05,-8.127772161969915e-06,-3.042774369532708e-05,3.3128351788036525e-05
-4.6390239731408656e-05,-1.018420880427584e-05,-2.3173597583081573e-05,2.8329657652648166e-05
-4.196795998723246e-05,-6.571264293597778e-06,-1.903495103761088e-05,2.029198731179349e-05
-3.822671351372264e-05,1.655409164413868e-06,-2.1432413632282987e-05,1.9045817680307664e-05
-4.186923979432322e-05,1.142824567068601e-05,-2.524154660932254e-05,2.362573468417395e-05
-4.602871194947511e-05,1.8637396351550706e-05,-2.836469138856046e-05,2.2193555196281523e-05
-4.7486468247370794e-05,1.7723246855894104e-05,-2.921285886259284e-05,1.8291537344339304e-05
-4.6743945858906955e-05,1.8627284589456394e-05,-3.008387102454435e-05,1.729702125885524e-05
-4.599238309310749e-05,2.2401403839467093e-05,-3.114480205113068e-05,2.1200356059125625e-05
-5.053217682871036e-05,2.5698131139506586e-05,-2.9432652809191495e-05,2.3205277102533728e-05
-5.6380784371867776e-05,2.8767288313247263e-05,-2.9273913241922855e-05,2.1250823920127004e-05
-5.363729360396974e-05,3.205807661288418e-05,-3.22865234920755e-05,1.700330358289648e-05
-4.8132184019777924e-05,3.397370528546162e-05,-3.449381256359629e-05,1.467361107643228e-05
-4.6602970542153344e-05,3.764084249269217e-05,-3.5063334507867694e-05,1.6026024241000414e-05
-4.798178997589275e-05,4.055784665979445e-05,-3.4955417504534125e-05,1.807043190638069e-05
-5.130743738845922e-05,3.721116081578657e-05,-3.395185558474623e-05,1.9287122995592654e-05
-5.413067265180871e-05,3.300921162008308e-05,-3.271890091127716e-05,1.892108775791712e-05
-5.488357419380918e-05,3.217903940821998e-05,-3.11099793179892e-05,1.8140874090022407e-05
-4.813666600966826e-05,3.225932232453488e-05,-2.830918674590066e-05,1.952221464307513e-05
-3.945253774872981e-05,2.8876744181616232e-05,-2.4218021280830726e-05,2.106282045133412e-05
-3.7468864320544526e-05,2.278017927892506e-05,-2.1888075934839435e-05,1.9292223441880196e-05
-3.892948370776139e-05,1.760220948199276e-05,-2.2183701730682515e-05,1.8945887859445065e-05
-4.0017075662035495e-05,1.7332216884824447e-05,-2.277560815855395e-05,2.0434907128219493e-05
-4.23861165472772e-05,1.5072806490934454e-05,-2.023722481681034e-05,2.0449650037335232e-05
-4.418277239892632e-05,4.382204224384623e-06,-1.7848002244136296e-05,1.8905393517343327e-05
-4.2430674511706457e-05,-7.503226129301765e-07,-1.8343207557336427e-05,2.018699888139963e-05
-3.848994674626738e-05,1.026448626362253e-05,-2.0128709365963005e-05,2.0782172214239836e-05
-3.532749542500824e-05,2.3091077309800312e-05,-2.1769175873487256e-05,2.125812170561403e-05
-2.926338311226573e-05,3.101744732703082e-05,-2.1869756892556325e-05,2.6660040020942688e-05
-2.5608753276173957e-05,4.0058930608211085e-05,-2.062477324216161e-05,3.02366133837495e-05
-2.9927523428341374e-05,4.945239925291389e-05,-1.75926379597513e-05,2.935781958512962e-05
-3.355824446771294e-05,5.743194560636766e-05,-1.5775280189700425e-05,2.7789272280642763e-05
-3.62559876521118e-05,6.740487151546404e-05,-1.5625455489498563e-05,3.0231423806981184e-05
-4.180469113634899e-05,7.399784226436168e-05,-1.3610832866106648e-05,3.556649971869774e-05
-4.598535451805219e-05,7.386157085420564e-05,-1.393356615153607e-05,3.714053309522569e-05
-4.6393655793508515e-05,6.655600009253249e-05,-1.7292279153480195e-05,3.2104639103636146e-05
-4.740880831377581e-05,5.546256579691544e-05,-1.8144735804526135e-05,2.6734847779152915e-05
-5.191572563489899e-05,5.2377250540303066e-05,-1.807026274036616e-05,2.6441617592354305e-05
-5.9961101214867085e-05,5.584647078649141e-05,-2.242552727693692e-05,2.620921986817848e-05
-6.680760270683095e-05,5.9455836890265346e-05,-2.782349838525988e-05,2.5538791305734776e-05
-6.900112930452451e-05,6.0556390963029116e-05,-2.955049421871081e-05,2.3226604753290303e-05
-6.704461702611297e-05,5.776711623184383e-05,-2.9506625651265495e-05,2.0080036847502925e-05
-6.229776045074686e-05,5.031069667893462e-05,-2.899842002079822e-05,1.781779974407982e-05
-5.491347110364586e-05,4.333872493589297e-05,-2.5378625650773756e-05,1.8145536159863696e-05
-4.857046587858349e-05,3.850077700917609e-05,-2.03768922801828e-05,1.963595968845766e-05
-4.719174830825068e-05,3.487845242489129e-05,-1.805802821763791e-05,2.183987817261368e-05
-4.6083845518296584e-05,3.396989268367179e-05,-1.957700078492053e-05,2.5794299290282652e-05
-4.285650356905535e-05,3.4234359191032127e-05,-2.184846016461961e-05,2.9120881663402542e-05
-4.414325667312369e-05,2.9941942557343282e-05,-2.1532548998948187e-05,3.060487870243378e-05
-5.0188402383355424e-05,2.4146975192707032e-05,-2.121092620654963e-05,3.014602407347411e-05
-5.500534098246135e-05,1.947364944498986e-05,-2.1838530301465653e-05,2.5009139790199697e-05
-5.9148078435100615e-05,1.0230951374978758e-05,-2.1491779989446513e-05,1.8710599761107005e-05
-6.393869989551604e-05,8.464883194392314e-07,-2.000023960135877e-05,1.9466053345240653e-05
-6.343706627376378e-05,4.690742116508773e-06,-1.9870651158271357e-05,2.2408545191865414e-05
-5.862091347808018e-05,1.4801241377426777e-05,-2.2247404558584094e-05,1.869127299869433e-05
-5.4483971325680614e-05,1.5994741261238232e-05,-2.5516921596135944e-05,1.3905800187785644e-05
-5.1384151447564363e-05,8.69960967975203e-06,-2.8132924853707664e-05,1.6268288163701072e-05
-5.244193380349316e-05,2.746964128164109e-06,-2.8263737476663664e-05,2.0480461898841895e-05
-4.9693982873577625e-05,6.795981335017132e-06,-2.8932709028595127e-05,2.6322015401092358e-05
-4.249103949405253e-05,8.656296813569497e-06,-3.115713843726553e-05,3.0812723707640544e-05
-3.961873153457418e-05,4.664514108299045e-06,-3.3830143365776166e-05,3.1452018447453156e-05
-4.021760105388239e-05,5.43516625839402e-06,-3.500565071590245e-05,2.8743095754180104e-05
-4.160726530244574e-05,1.382445316266967e-05,-3.141917841276154e-05,2.794582542264834e-05
-4.685989915742539e-05,2.64872705884045e-05,-2.713019603106659e-05,2.9411610739771277e-05
-5.6352590036112815e-05,4.0492366679245606e-05,-2.5592245947336778e-05,3.08424023387488e-05
-5.848253204021603e-05,5.129470810061321e-05,-2.6504254492465407e-05,3.244023537263274e-05
-5.307169703883119e-05,5.328696352080442e-05,-2.703605787246488e-05,3.102868140558712e-05
-5.0872142310254276e-05,4.719838761957362e-05,-2.6489104129723273e-05,3.0031558708287776e-05
-5.4108899348648265e-05,3.9368143916362897e-05,-2.651378781592939e-05,3.168787952745333e-05
-5.659084126818925e-05,3.536280928528868e-05,-2.6554296709946357e-05,3.125930379610509e-05
-5.570240318775177e-05,3.344253855175339e-05,-2.4945902623585425e-05,2.6457388230483048e-05
-5.181352753425017e-05,2.6218214770779014e-05,-2.3335527657764032e-05,2.207973193435464e-05
-4.448155959835276e-05,6.820035196142271e-06,-2.239681089122314e-05,2.3431482986779884e-05
-3.68496221199166e-05,-1.9639357560663484e-05,-1.999170308408793e-05,2.746468635450583e-05
-3.0045079256524332e-05,-3.687184289447032e-05,-1.8710834410740063e-05,2.5654191631474532e-05
-2.6665982659324072e-05,-3.4658354707062244e-05,-2.0044069970026612e-05,2.090627640427556e-05
-2.9193097361712717e-05,-1.762595638865605e-05,-2.2802307285019197e-05,1.9641809558379464e-05
-3.554632348823361e-05,8.071265256148763e-06,-2.7164693165104836e-05,2.0386634787428193e-05
-4.1926075937226415e-05,3.439082865952514e-05,-2.9581055059679784e-05,2.0243118342477828e-05
-4.5978133130120113e-05,5.218954902375117e-05,-2.8426878998288885e-05,2.049348404398188e-05
-5.08177254232578e-05,5.8796998928301036e-05,-2.8788410418201238e-05,2.1197394744376652e-05
-5.165380935068242e-05,5.4166703193914145e-05,-3.315298454253934e-05,2.1802630726597272e-05
-4.8624024202581495e-05,4.521405207924545e-05,-3.767183079617098e-05,2.2455735233961605e-05
-4.756401540362276e-05,4.473827357287519e-05,-3.671971717267297e-05,2.2525844542542472e-05
-5.322993456502445e-05,4.664012521971017e-05,-3.475938501651399e-05,2.411917557765264e-05
-6.473675603047013e-05,4.6029555960558355e-05,-3.242571619921364e-05,2.3963926651049405e-05
-6.828414188930765e-05,4.350600647740066e-05,-2.469402170390822e-05,2.1138501324458048e-05
-6.568485696334392e-05,3.659405410871841e-05,-2.008652336371597e-05,2.0095052605029196e-05
-6.36539189144969e-05,3.3722593798302114e-05,-2.20739657379454e-05,2.182027674280107e-05
-6.618018232984468e-05,3.588539038901217e-05,-2.764107375696767e-05,2.3788925318513066e-05
-7.195632497314364e-05,3.965206997236237e-05,-2.9120021281414665e-05,2.4513035896234214e-05
-7.777538849040866e-05,4.786978752235882e-05,-2.6470735974726267e-05,2.8615100745810196e-05
-7.811894465703517e-05,6.222643423825502e-05,-2.444611345708836e-05,3.0623086786363274e-05
-7.087434642016888e-05,7.148718577809632e-05,-2.2815054762759246e-05,2.8846274290117435e-05
-6.082897380110808e-05,7.403567724395543e-05,-2.446190956106875e-05,2.548930569901131e-05
-5.4927124438108876e-05,7.452521094819531e-05,-2.806413067446556e-05,2.1513629690161906e-05
-5.6182929256465286e-05,7.125442061806098e-05,-3.100479079876095e-05,1.982287722057663e-05
-5.636898640659638e-05,6.247851706575602e-05,-3.267065767431632e-05,2.1877369363210164e-05
-5.309165135258809e-05,5.140389839652926e-05,-3.442620800342411e-05,2.7051592041971162e-05
-4.8715715820435435e-05,4.029894989798777e-05,-3.53237810486462e-05,3.1277955713449046e-05
-4.5514472731156275e-05,3.100352842011489e-05,-3.5073917388217524e-05,3.075097265536897e-05
-4.446888851816766e-05,2.323689841432497e-05,-3.3966331102419645e-05,2.7732403395930305e-05
-4.845450894208625e-05,1.5335359421442263e-05,-3.39356811309699e-05,2.7182268240721896e-05
-5.196572601562366e-05,1.5593886928400025e-05,-3.3747746783774346e-05,2.652422153914813e-05
-4.9767284508561715e-05,2.8541646315716207e-05,-3.191498399246484e-05,2.4081735318759456e-05
-4.751655433210544e-05,4.544305556919426e-05,-3.178903352818452e-05,2.2647209334536456e-05
-5.0252510845893994e-05,5.2197447075741366e-05,-3.5430333809927106e-05,2.39702858380042e-05
-5.203518594498746e-05,4.633599746739492e-05,-3.8562102417927235e-05,2.5336987164337188e-05
-5.120375499245711e-05,3.2953052141238004e-05,-3.362096686032601e-05,2.503682662791107e-05
-5.30619545315858e-05,2.256704101455398e-05,-2.6673104002838954e-05,2.4988054065033793e-05
-5.823229002999142e-05,1.6343314200639725e-05,-2.839083390426822e-05,2.418734584352933e-05
-6.02956824877765e-05,1.0880029549298342e-05,-3.28785645251628e-05,2.0221843442413956e-05
-5.4547326726606116e-05,9.130640137300361e-06,-3.4966175007866696e-05,1.773394069459755e-05
-4.879371772403829e-05,1.0132556781172752e-05,-3.5855340684065595e-05,1.8164701032219455e-05
-5.3304018365452066e-05,1.1464540875749663e-05,-3.393925726413727e-05,1.835441253206227e-05
-5.958495967206545e-05,1.1330470442771912e-05,-3.186594040016644e-05,1.963112117664423e-05
-5.9995065385010093e-05,1.0314211976947263e-05,-3.0701055948156863e-05,1.985942799365148e-05
-6.002555528539233e-05,1.157732549472712e-05,-2.946387030533515e-05,1.883113509393297e-05
-5.9416608564788476e-05,1.2529807463579345e-05,-2.560090069891885e-05,2.0586456230375916e-05
-5.893534398637712e-05,1.2905654330097605e-05,-1.828808854043018e-05,2.1436864699353464e-05
-5.8491856179898605e-05,1.4076448678679299e-05,-1.5061657904880121e-05,2.081805723719299e-05
-5.389380385167897e-05,1.1991050996584818e-05,-1.9236675143474713e-05,1.8519578588893637e-05
-4.324054316384718e-05,7.805394488968886e-06,-2.54588794632582e-05,1.54079152707709e-05
-3.4974968002643436e-05,5.109951871418161e-06,-2.560767825343646e-05,1.3523237612389494e-05
-3.158174149575643e-05,3.1264992230717326e-06,-2.024043169512879e-05,1.5602330677211285e-05
-3.175126403220929e-05,-1.2928296655445592e-06,-1.4737771380168851e-05,1.751736090227496e-05
-3.4633361792657524e-05,-6.734233920724364e-06,-1.1914564311155118e-05,1.608012280485127e-05
-3.935916174668819e-05,-6.9389438976941165e-06,-1.2357724699540995e-05,1.3898592442274094e-05
-4.1009778215084225e-05,1.5551280512227095e-06,-1.384511688229395e-05,1.4165565517032519e-05
-3.807093889918178e-05,1.713714300421998e-05,-1.6326404875144362e-05,1.8169861505157314e-05
-3.2589287002338096e-05,3.733631092472933e-05,-1.8468903363100253e-05,2.1766267309430987e-05
-2.4959137590485625e-05,5.797690391773358e-05,-1.7817694242694415e-05,2.2502510546473786e-05
-2.068118192255497e-05,7.47008016332984e-05,-1.42196759043145e-05,2.206570206908509e-05
-2.0266350475139916e-05,9.054936526808888e-05,-1.5882627849350683e-05,2.3801723727956414e-05
-1.6092892110464163e-05,0.0001008186154649593,-2.100226811307948e-05,2.462179327267222e-05
-1.4397780432773288e-05,9.693265019450337e-05,-2.046640292974189e-05,2.5538492991472594e-05
-2.1640251361532137e-05,8.242474723374471e-05,-1.798247467377223e-05,2.7665719244396314e-05
-3.379453482921235e-05,6.410905916709453e-05,-1.7639024008531123e-05,2.918707650678698e-05
-4.090303264092654e-05,5.748738476540893e-05,-2.0400633729877882e-05,3.2257335988106206e-05
-3.9132588426582515e-05,5.7341025240020826e-05,-2.5049906980711967e-05,3.410799035918899e-05
-4.152064866502769e-05,5.144740134710446e-05,-2.8700595066766255e-05,3.085336720687337e-05
-4.54858090961352e-05,4.400805846671574e-05,-3.123076749034226e-05,2.787202720355708e-05
-4.741550947073847e-05,3.585390004445799e-05,-3.3451360650360584e-05,2.752988802967593e-05
-4.805870776181109e-05,2.7915360988117754e-05,-3.326067599118687e-05,2.7346111892256886e-05
-5.227998553891666e-05,1.692163095867727e-05,-3.0890390917193145e-05,2.4756609491305426e-05
-5.7425313571002334e-05,6.951045179448556e-06,-3.0207233066903427e-05,2.1192690837779082e-05
-5.873746340512298e-05,3.2209279652306577e-06,-3.063152689719573e-05,1.7581809515831992e-05
-5.7988032494904473e-05,4.688908575189998e-06,-2.976466748805251e-05,1.683585469436366e-05
-5.760973726864904e-05,1.0345439477532636e-05,-2.8365191610646434e-05,1.9681059711729176e-05
-5.8483223256189376e-05,1.896459434647113e-05,-2.6706675271270797e-05,2.3002030502539128e-05
-6.306655268417671e-05,2.666057480382733e-05,-2.585273250588216e-05,2.2923832148080692e-05
-6.817785470047966e-05,3.113489583483897e-05,-2.557657535362523e-05,1.9895740479114465e-05
-7.008828106336296e-05,3.206590190529823e-05,-2.402890459052287e-05,1.669143239269033e-05
-6.884585309308022e-05,3.216891855117865e-05,-2.235748979728669e-05,1.677898944763001e-05
-6.426252366509289e-05,3.635933171608485e-05,-2.272015808557626e-05,1.960116424015723e-05
-5.8244291722076014e-05,4.368019290268421e-05,-2.3152744688559324e-05,2.1102619939483702e-05
-5.2447252528509125e-05,4.828261080547236e-05,-2.262100315419957e-05,2.0543508071568795e-05
-5.130770296091214e-05,4.498890848481096e-05,-2.4438288164674304e-05,2.0543642676784657e-05
-5.2966588555136696e-05,3.6077690310776234e-05,-2.6864181563723832e-05,2.293754914717283e-05
-5.643574331770651e-05,2.484882679709699e-05,-2.601706910354551e-05,2.5206782083841972e-05
-5.944101940258406e-05,1.4992120668466669e-05,-2.409529588476289e-05,2.642952313181013e-05
-5.8641340729082e-05,8.270354555861559e-06,-2.5199868105119094e-05,2.5261591872549616e-05
-5.434102058643475e-05,3.4887066249211784e-06,-2.472149753884878e-05,2.2384378098649904e-05
-4.6315424697240815e-05,1.0563649084360804e-06,-2.307729664607905e-05,2.0397828848217614e-05
-4.274538150639273e-05,3.2659063435858116e-06,-2.40939662035089e-05,2.1121704776305705e-05
-5.151863661012612e-05,1.3451649465423543e-05,-2.6450701625435613e-05,2.172416316170711e-05
-6.081606989027932e-05,2.9387965696514584e-05,-3.0021956263226457e-05,1.7092099369619973e-05
-6.173686415422708e-05,4.47788588644471e-05,-2.9196973628131673e-05,1.2557627997011878e-05
-5.749504271079786e-05,5.7434106565779075e-05,-2.623606997076422e-05,1.5111419088498224e-05
-5.718298052670434e-05,6.379448313964531e-05,-2.5679570171632804e-05,1.8668397387955338e-05
-5.926868470851332e-05,6.253866740735248e-05,-2.3425916879205033e-05,2.046582449111156e-05
-6.060603118385188e-05,5.825774132972583e-05,-2.236338877992239e-05,2.0354311345727183e-05
-5.911950211157091e-05,5.9678248362615705e-05,-2.381379272264894e-05,1.9353559764567763e-05
-5.5668035201961175e-05,6.339918036246672e-05,-2.4500432118657045e-05,1.985018388950266e-05
-5.474373392644338e-05,6.070161907700822e-05,-2.523483090044465e-05,2.4233775548054837e-05
-5.6108601711457595e-05,5.4833195463288575e-05,-2.5874476705212146e-05,2.871932156267576e-05
-5.801346560474485e-05,4.858952161157504e-05,-2.6148305551032536e-05,3.332685446366668e-05
-6.0747930547222495e-05,4.059039201820269e-05,-2.713221329031512e-05,3.398442640900612e-05
-6.286377174546942e-05,2.7702568331733346e-05,-2.922649400716182e-05,2.8659242161666043e-05
-6.136502634035423e-05,7.683084731979761e-06,-3.194529199390672e-05,2.3608901756233536e-05
-5.417117426986806e-05,-1.5556566722807474e-05,-3.111512342002243e-05,2.3636735932086594e-05
-4.518598871072754e-05,-2.659498932189308e-05,-2.5821111194090918e-05,2.7700833015842363e-05
-4.3115556763950735e-05,-1.834541399148293e-05,-2.267485069751274e-05,2.844419577741064e-05
-4.6769837354077026e-05,-1.0100538929691538e-06,-2.3872851670603268e-05,2.6169787815888412e-05
-4.863446156377904e-05,1.4986821042839438e-05,-2.4727272830205038e-05,2.4115730411722325e-05
-4.38216702605132e-05,2.7974323529633693e-05,-2.5062305212486535e-05,2.2661766706733033e-05
-4.1568331653252244e-05,3.850038774544373e-05,-2.549007513152901e-05,2.093875446007587e-05
-4.686387183028273e-05,4.834490391658619e-05,-2.673171547940001e-05,1.9642440747702494e-05
-4.7971450840123e-05,5.756393147748895e-05,-2.973792470584158e-05,1.755023367877584e-05
-4.34024041169323e-05,5.8729190641315654e-05,-3.0087172490311787e-05,1.701543624221813e-05
-4.197871749056503e-05,5.658629015670158e-05,-2.688912172743585e-05,1.6580455849179998e-05
-3.9072921936167404e-05,5.857379437657073e-05,-2.5633047698647715e-05,1.9502078430377878e-05
-3.655389082268812e-05,5.5306747526628897e-05,-2.6581485144561157e-05,2.537805812607985e-05
-3.2435778848594055e-05,4.950249058310874e-05,-2.618272446852643e-05,2.764381679298822e-05
-3.1613584724254906e-05,4.184263161732815e-05,-2.4418182874796912e-05,2.8148057026555762e-05
-4.2743402445921674e-05,3.28910791722592e-05,-2.238255001429934e-05,2.7722984668798745e-05
-5.206662171985954e-05,3.0192037229426205e-05,-2.290374686708674e-05,2.5347762857563794e-05
-5.3279491112334654e-05,2.847850919351913e-05,-2.4770417439867742e-05,2.5693250790936872e-05
-5.103904186398722e-05,3.185953028150834e-05,-2.4977609427878633e-05,2.9108945454936475e-05
-4.915133467875421e-05,3.721567918546498e-05,-2.316356221854221e-05,2.9197975891293027e-05
-4.960002479492687e-05,3.642548472271301e-05,-2.2119793356978334e-05,2.6160658308072016e-05
-5.281048288452439e-05,2.994496753672138e-05,-2.3969436369952746e-05,2.462278280290775e-05
-5.658804002450779e-05,2.555778883106541e-05,-2.6970099497702904e-05,2.6257104764226824e-05
-5.863868136657402e-05,2.5748333428055048e-05,-2.5427380023756996e-05,2.8961754651390947e-05
-5.615086047328077e-05,2.654953823366668e-05,-2.1044663299107924e-05,3.11505064019002e-05
-5.106330354465172e-05,2.8367170671117492e-05,-1.952200909727253e-05,3.382064824108966e-05
-5.080457412987016e-05,2.9259681468829513e-05,-2.130487519025337e-05,3.728057345142588e-05
-5.789635542896576e-05,2.7027728719986044e-05,-2.3419870558427647e-05,3.745619687833823e-05
-6.267741264309734e-05,2.1760053641628474e-05,-2.4535798729630187e-05,3.385634408914484e-05
-6.234143802430481e-05,1.480016544519458e-05,-2.3657139536226168e-05,3.097212902503088e-05
-6.111429684096947e-05,7.142284175642999e-06,-2.0405776012921706e-05,3.1973671866580844e-05
-5.741107452195138e-05,4.098540557606611e-06,-2.042933920165524e-05,3.375760206836276e-05
-5.448327283374965e-05,8.321437235281337e-06,-2.52828722295817e-05,3.219760401407257e-05
-5.5900403822306544e-05,1.8808392269420438e-05,-3.165971429552883e-05,2.722981480474118e-05
-5.8418187109055e-05,2.7652817152556963e-05,-3.464507608441636e-05,2.2681420887238346e-05
-5.870680251973681e-05,3.206063047400676e-05,-3.4639677323866636e-05,2.1138301235623658e-05
-5.799261634820141e-05,3.1052157282829285e-05,-3.2825497328303754e-05,1.977911415451672e-05
-5.190447700442746e-05,2.2012613044353202e-05,-3.172333526890725e-05,1.8577929949969985e-05
-4.138223812333308e-05,1.6676485756761394e-05,-2.8579053832800128e-05,1.7795939129428007e-05
-3.554213253664784e-05,1.825990511861164e-05,-2.339580350962933e-05,1.9995788534288295e-05
-3.4399490687064826e-05,2.3892003810033202e-05,-2.0464334738790058e-05,2.29187571676448e-05
-3.494644624879584e-05,3.240880323573947e-05,-1.77237070602132e-05,2.1129373635631055e-05
-3.881652082782239e-05,3.275052586104721e-05,-1.7715650756144896e-05,1.9490189515636303e-05
-3.9282895158976316e-05,2.9118111342540942e-05,-2.0631892766687088e-05,2.0064066120539792e-05
-3.6939010897185653e-05,2.9100290703354403e-05,-2.318760562047828e-05,2.076135206152685e-05
-3.801227285293862e-05,3.1702500564279035e-05,-2.1072310119052418e-05,2.1673482478945516e-05
-4.142329271417111e-05,3.672513412311673e-05,-1.926038930832874e-05,2.1780870156362653e-05
-4.3513977288967e-05,4.0924067434389144e-05,-2.2303711375570856e-05,2.1270821889629588e-05
-4.385939973872155e-05,4.1660434362711385e-05,-2.6389749109512195e-05,2.185249832109548e-05
-4.5323358790483326e-05,4.082609302713536e-05,-2.568216950749047e-05,2.5455841750954278e-05
-4.3786068999907e-05,4.124328916077502e-05,-2.1963936887914315e-05,2.835740269802045e-05
-4.084210377186537e-05,4.1317849536426365e-05,-2.0559227777994238e-05,2.7065625545219518e-05
-3.9519778511021286e-05,4.2152561945840716e-05,-2.288785071868915e-05,2.3369257178273983e-05
-3.8166966987773776e-05,3.932737672585063e-05,-2.904924076574389e-05,1.911494655360002e-05
-3.514404670568183e-05,3.455962360021658e-05,-3.3311360311927274e-05,1.591807813383639e-05
-3.607190592447296e-05,3.694589759106748e-05,-3.370058402651921e-05,1.798859921109397e-05
-4.062796142534353e-05,4.6024553739698604e-05,-3.06436704704538e-05,2.428283005428966e-05
-4.36057525803335e-05,5.1700200856430456e-05,-2.42064143094467e-05,2.7444471925264224e-05
-4.3992724386043847e-05,4.7856807213975117e-05,-2.063050851575099e-05,2.638336445670575e-05
-4.35163892689161e-05,3.6876626836601645e-05,-2.547941403463483e-05,2.494490399840288e-05
-4.339269798947498e-05,2.902251435443759e-05,-2.9820164854754694e-05,2.40287663473282e-05
-4.3479569285409525e-05,3.170813215547241e-05,-2.8458667657105252e-05,2.2373078536475077e-05
-4.5372682507149875e-05,4.1367809899384156e-05,-2.5847004508250393e-05,2.086486347252503e-05
-4.7215085942298174e-05,4.2909396142931655e-05,-2.5280131012550555e-05,1.7413765817764215e-05
-4.743833051179536e-05,3.49166730302386e-05,-2.6344232537667267e-05,1.5625020751031116e-05
-4.523173629422672e-05,3.198492049705237e-05,-2.7523523385752924e-05,1.533004797238391e-05
-4.477527545532212e-05,3.347601159475744e-05,-2.9474736948031932e-05,1.2985520697839092e-05
-4.621985863195732e-05,3.1530264095636085e-05,-2.959085577458609e-05,1.078242712537758e-05
-4.81095994473435e-05,2.282746572745964e-05,-2.8941021810169332e-05,1.3327835404197685e-05
-4.766956772073172e-05,1.4142587133392226e-05,-3.0882511055096984e-05,1.9325834728078917e-05
-4.6448709326796234e-05,1.2387728929752484e-05,-3.216286131646484e-05,2.1044203094788827e-05
-4.8903799324762076e-05,1.5495696061407216e-05,-3.174483936163597e-05,1.887290272861719e-05
-5.5007698392728344e-05,1.42921107908478e-05,-2.9387580070761032e-05,1.698618507361971e-05
-6.31524744676426e-05,1.2151292139606085e-05,-2.86850226984825e-05,1.6054706065915525e-05
-6.348942406475544e-05,1.3890652553527616e-05,-2.9328326490940526e-05,1.6285628589685075e-05
-6.0000857047270983e-05,2.2781376173952594e-05,-3.056880450458266e-05,2.0695844796136953e-05
-5.84656409046147e-05,3.8445556128863245e-05,-3.047572863579262e-05,2.6266616259817965e-05
-5.513421638170257e-05,5.236037395661697e-05,-2.6834059099201113e-05,2.6981146220350638e-05
-4.835782965528779e-05,5.711576159228571e-05,-2.3870054064900614e-05,2.3180287826107815e-05
-4.267248004907742e-05,5.7261844631284475e-05,-2.3012264136923477e-05,2.117648364219349e-05
-4.286659532226622e-05,5.605213300441392e-05,-2.370075526414439e-05,2.2159098080010153e-05
-4.7743953473400325e-05,4.883399742539041e-05,-2.4927476260927506e-05,2.399598088231869e-05
-5.512651114258915e-05,3.896421185345389e-05,-2.7140520614921115e-05,2.4769078663666733e-05
-6.231956649571657e-05,2.9440743674058467e-05,-2.6372368665761314e-05,2.5666977307992056e-05
-6.53955212328583e-05,1.5493780665565282e-05,-2.3707934815320186e-05,2.7331836463417858e-05
-5.9871937992284074e-05,-7.10498534317594e-06,-2.1710877263103612e-05,2.7836136723635718e-05
-5.39725660928525e-05,-3.386348907952197e-05,-2.0910261810058728e-05,2.7383204724173993e-05
-5.241013059276156e-05,-5.555866300710477e-05,-1.9748071281355806e-05,2.537344153097365e-05
-5.3368814405985177e-05,-5.426780626294203e-05,-1.9317836631671526e-05,2.510191552573815e-05
-5.577854244620539e-05,-3.287827712483704e-05,-2.2749261916032992e-05,2.5811845262069255e-05
-5.904327190364711e-05,-4.065153007104527e-06,-2.641532955749426e-05,2.485143340891227e-05
-6.0976981330895796e-05,3.15504839818459e-05,-2.5991108486778103e-05,2.3890570446383208e-05
-5.685648648068309e-05,7.39131573936902e-05,-2.256423977087252e-05,2.1496238332474604e-05
-5.406158743426204e-05,0.0001082781091099605,-2.4027389372349717e-05,2.084919651679229e-05
-5.2533476264216006e-05,0.00012347778829280287,-2.861395842046477e-05,2.4861186830094084e-05
-4.868923861067742e-05,0.00012181264173705131,-2.7275067623122595e-05,2.8553085940075107e-05
-4.591457764036022e-05,0.00010982909589074552,-2.3527341909357347e-05,2.984211459988728e-05
-4.567394353216514e-05,0.00011134496162412688,-2.4843751816661097e-05,2.8873715564259328e-05
-4.79236914543435e-05,0.00012761788093484938,-2.930389018729329e-05,2.49179829552304e-05
-5.1062081183772534e-05,0.0001297246344620362,-2.8204052796354517e-05,2.0523260900517926e-05
-5.5153424909804016e-05,0.00010776504495879635,-2.5673743948573247e-05,1.9520868590916507e-05
-5.966301614535041e-05,7.954608008731157e-05,-2.695344119274523e-05,2.1540401576203294e-05
-6.730997847625986e-05,6.058507278794423e-05,-3.152418867102824e-05,2.4393997591687366e-05
-7.67457895562984e-05,5.057913949713111e-05,-3.601494972826913e-05,2.56228322541574e-05
-8.06108073447831e-05,4.214387445244938e-05,-3.456234480836429e-05,2.6401752620586194e-05
-7.437826570821926e-05,3.1598126952303573e-05,-2.762197436823044e-05,2.559158019721508e-05
-6.078017031541094e-05,1.962151873158291e-05,-2.336990110052284e-05,2.3706241336185485e-05
-4.4967389840167016e-05,7.799000741215423e-06,-2.3945500288391486e-05,2.3531254555564374e-05
-3.085364369326271e-05,-3.4068048648805416e-07,-2.5209657906088978e-05,2.578120256657712e-05
-2.250360012112651e-05,2.521613851058646e-06,-2.527205833757762e-05,2.8279644538997672e-05
-2.1103118342580274e-05,1.4759161786059849e-05,-2.3512562620453537e-05,3.036271664313972e-05
-2.24816394620575e-05,2.4147448129951954e-05,-1.9849116142722778e-05,2.986752770084422e-05
-2.017537917708978e-05,2.833462531270925e-05,-1.5143502423597965e-05,2.740647687460296e-05
-1.3933859918324742e-05,2.9553051717812195e-05,-1.4592049410566688e-05,2.872059485525824e-05
-1.425486243533669e-05,2.5172115783789195e-05,-1.605605211807415e-05,3.2705724152037874e-05
-2.8716158340102993e-05,1.8743758118944243e-05,-1.798475204850547e-05,3.347839447087608e-05
-4.602189801516943e-05,1.8479851860320196e-05,-2.0184921595500782e-05,2.8928881874890067e-05
-5.021991819376126e-05,2.0956815205863677e-05,-1.9394914488657378e-05,2.59472981269937e-05
-4.641990381060168e-05,2.0066898287041113e-05,-1.8284947145730257e-05,2.638452497194521e-05
-4.9401060095988214e-05,1.757468817231711e-05,-2.0052539184689522e-05,2.43413305724971e-05
-5.496996163856238e-05,2.1501835362869315e-05,-2.4088731152005494e-05,2.451014552207198e-05
-5.5284657719312236e-05,2.793152816593647e-05,-2.9560080292867497e-05,2.967726868519094e-05
-5.514008444151841e-05,2.7075346224592067e-05,-3.3184856874868274e-05,3.413458034629002e-05
-5.678565503330901e-05,1.9908620743080974e-05,-3.703944821609184e-05,3.587256287573837e-05
-5.519446494872682e-05,8.392065865336917e-06,-3.810750422417186e-05,3.2730822567828e-05
-5.5078799050534144e-05,-7.308387921511894e-06,-3.644130629254505e-05,3.005485086760018e-05
-5.7893161283573136e-05,-1.7917351215146482e-05,-3.6351899325381964e-05,2.4840406695147976e-05
-5.546300963032991e-05,-1.354352934868075e-05,-3.6615412682294846e-05,1.9180291928933002e-05
-5.107983815832995e-05,-4.4815287765231915e-06,-3.428004856687039e-05,1.691382931312546e-05
-5.026061262469739e-05,2.8439233119570417e-06,-3.1348343327408656e-05,1.709766911517363e-05
-5.408933066064492e-05,1.1785042261180934e-05,-3.2486434065504e-05,1.9090653950115666e-05
-6.180540367495269e-05,2.4180537366191857e-05,-3.534775532898493e-05,2.0231733287801035e-05
-6.970435060793534e-05,3.6685061786556616e-05,-3.631741856224835e-05,2.1293450117809698e-05
-7.453218859154731e-05,4.365017230156809e-05,-3.576032759156078e-05,2.262840098410379e-05
-7.475614256691188e-05,4.3825668399222195e-05,-3.650491271400824e-05,2.266225237690378e-05
-7.111774175427854e-05,3.621395808295347e-05,-3.7845373299205676e-05,1.9165432604495436e-05
-6.3699008023832e-05,2.3373819203698076e-05,-3.6312558222562075e-05,1.3840025530953426e-05
-5.4539032134925947e-05,1.656361018831376e-05,-3.063058102270588e-05,9.909704203892034e-06
-4.511557926889509e-05,2.301633867318742e-05,-2.5442270271014422e-05,1.0584185474726837e-05
-3.5770994145423174e-05,3.478154758340679e-05,-2.58410582318902e-05,1.278009222005494e-05
-2.78504903690191e-05,3.8850048440508544e-05,-2.9609620469273068e-05,1.4233769434213173e-05
-2.246343319711741e-05,3.041526724700816e-05,-3.1327894248533994e-05,1.3987253623781726e-05
-2.405043414910324e-05,2.0581808712449856e-05,-2.9323784474399872e-05,1.4444412954617292e-05
-2.9031145459157415e-05,1.362104740110226e-05,-2.689605753403157e-05,1.5897530829533935e-05
-2.9234490284579806e-05,1.2234308996994514e-06,-2.5407882276340388e-05,1.7189782738569193e-05
-2.7304073228151537e-05,-1.2899575267510954e-05,-2.374016730755102e-05,2.0176417820039205e-05
-2.9972658012411557e-05,-1.9382843674975447e-05,-2.448068880767096e-05,2.5044233552762307e-05
-3.628377089626156e-05,-1.3186229807615746e-05,-2.674845927685965e-05,2.8949832994840108e-05
-3.857693081954494e-05,-1.2455252544896211e-06,-2.745912570389919e-05,3.088748053414747e-05
-4.360429011285305e-05,7.943684977362864e-06,-2.6211491785943508e-05,2.85418991552433e-05
-5.190702358959243e-05,1.706111834209878e-05,-2.5524304874124937e-05,2.2433172489400022e-05
-5.76517813897226e-05,2.8411364837666042e-05,-2.6918432922684588e-05,1.7244734408450313e-05
-6.114322604844347e-05,3.874401227221824e-05,-2.8599428333109245e-05,1.0615760402288288e-05
-6.336929072858766e-05,4.3092713895021006e-05,-2.5799636205192655e-05,6.8503463808156084e-06
-6.714044866384938e-05,4.685300882556476e-05,-2.300967935298104e-05,1.1148621524625923e-05
-7.166471186792478e-05,5.248820161796175e-05,-2.310011586814653e-05,1.6430947653134353e-05
-7.699355046497658e-05,5.493119897437282e-05,-2.424311423965264e-05,1.447966951673152e-05
-7.552386523457244e-05,5.484382199938409e-05,-2.331210816919338e-05,1.096793948818231e-05
-6.839755224063993e-05,5.715940278605558e-05,-2.178714203182608e-05,1.1593526323849801e-05
-6.147890962893143e-05,5.897384471609257e-05,-2.0797724573640153e-05,1.091635294869775e-05
-6.049607691238634e-05,5.4121745051816106e-05,-1.9474535292829387e-05,8.110640010272618e-06
-6.378458783729002e-05,4.2823019612114877e-05,-2.0482862964854576e-05,8.923126188165043e-06
-6.583442154806107e-05,3.129979450022802e-05,-2.4553050025133416e-05,1.4214822840585839e-05
-6.290138117037714e-05,2.7352487450116314e-05,-2.9748956876574084e-05,1.948375029314775e-05
-5.600944859907031e-05,3.200756691512652e-05,-3.18113379762508e-05,2.2212829208001494e-05
-5.385307304095477e-05,3.890610605594702e-05,-3.247887434554286e-05,2.2421130779548548e-05
-5.96621903241612e-05,4.319457366364077e-05,-3.355177250341512e-05,2.246377698611468e-05
-6.645047687925398e-05,4.274718594388105e-05,-3.263554390287027e-05,2.43463073275052e-05
-6.389727786881849e-05,3.63266262866091e-05,-2.8244978238944896e-05,2.8942253265995532e-05
-5.417519059847109e-05,3.2271211239276454e-05,-2.4423390641459264e-05,3.3074062230298296e-05
-4.555005580186844e-05,3.4481239708838984e-05,-2.5607894713175483e-05,3.3020151022356004e-05
-4.3273594201309606e-05,3.684455805341713e-05,-2.851653698598966e-05,2.9658936909982003e-05
-4.4566539145307615e-05,3.575001028366387e-05,-2.6685642296797596e-05,2.6633915695128962e-05
-4.2432213376741856e-05,2.9986724257469177e-05,-2.206445969932247e-05,2.412598769296892e-05
-3.574721995391883e-05,2.1908950657234527e-05,-1.5748153600725345e-05,2.248168493679259e-05
-3.420497523620725e-05,1.9198832887923345e-05,-1.2657229490287136e-05,2.3079135644366033e-05
-4.3584255763562396e-05,1.7190146536449902e-05,-1.293826790060848e-05,2.369817411818076e-05
-5.069668986834586e-05,1.8805616491590627e-05,-1.6562593373237178e-05,2.436309114273172e-05
-4.809341407963075e-05,2.8918400857946835e-05,-2.049335125775542e-05,2.3361177227343433e-05
-4.3744134018197656e-05,3.6279059713706374e-05,-1.9741433789022267e-05,2.2011789042153396e-05
-4.168260784354061e-05,3.715250932145864e-05,-1.7370201021549292e-05,2.145474536519032e-05
-4.3162854126421735e-05,3.727246803464368e-05,-1.817017800931353e-05,2.1669422494596802e-05
-4.206582889310084e-05,4.077443736605346e-05,-1.9498382243909873e-05,2.303617111465428e-05
-3.579937038011849e-05,4.5192991819931194e-05,-1.8755146811599843e-05,2.3269729354069568e-05
-3.298062802059576e-05,5.3030948038212955e-05,-1.9639794118120335e-05,2.3873399186413735e-05
-3.961488255299628e-05,6.280732486629859e-05,-1.9069624613621272e-05,2.561951805546414e-05
-4.7512912715319544e-05,6.698781362501904e-05,-1.613070890016388e-05,2.8948814360774122e-05
-4.855501538258977e-05,6.333451165119186e-05,-1.3938312804384623e-05,3.2629981433274224e-05
-4.3264339183224365e-05,5.4488158639287576e-05,-1.4651174751634244e-05,3.549972461769357e-05
-3.6610759707400575e-05,4.41693737229798e-05,-1.3742783266934566e-05,3.799727346631698e-05
-3.216048571630381e-05,3.593919245759025e-05,-1.3008601854380686e-05,3.799294790951535e-05
-3.208461930626072e-05,3.059006849071011e-05,-1.580056778038852e-05,3.490409653750248e-05
-3.658316200016998e-05,2.676376243471168e-05,-2.1236424800008535e-05,3.293504050816409e-05
-4.2022471461677924e-05,2.786082222883124e-05,-2.4101962480926886e-05,3.584710793802515e-05
-4.617445301846601e-05,3.6577410355675966e-05,-2.3038557628751732e-05,3.764632856473327e-05
-4.82875038869679e-05,4.5693650463363156e-05,-2.3334861907642335e-05,3.397874388610944e-05
-4.6018583816476166e-05,4.806759534403682e-05,-2.523097282391973e-05,2.9327467927942052e-05
-4.4554170017363504e-05,4.7536414058413357e-05,-2.58628078881884e-05,2.782290721370373e-05
-4.70193408546038e-05,4.3486310460139066e-05,-2.3787455575075e-05,2.862536712200381e-05
-4.729270585812628e-05,3.348243990330957e-05,-2.6383579097455367e-05,2.9710148737649433e-05
-4.880205960944295e-05,2.1729127183789387e-05,-3.2459422072861344e-05,3.345877121319063e-05
-4.836234074900858e-05,1.3952287190477364e-05,-3.4879427403211594e-05,3.567278690752573e-05
-4.508011988946237e-05,6.603170731978025e-06,-3.624366581789218e-05,3.438154817558825e-05
-4.707880361820571e-05,-5.881530796614243e-06,-3.493322947178967e-05,3.6518929846351966e-05
-5.380025686463341e-05,-1.5165293916652445e-05,-3.37084784405306e-05,3.7802779843332246e-05
-5.823035098728724e-05,-1.6219653844018467e-05,-3.57219141733367e-05,3.5742621548706666e-05
-6.202931399457157e-05,-1.179737773782108e-05,-3.7873756809858605e-05,3.1681334803579375e-05
-6.624058732995763e-05,-7.306943643925479e-06,-3.5061933886026964e-05,2.698671232792549e-05
-6.748687155777588e-05,-1.1609799912548624e-06,-2.8923428544658236e-05,2.6919789888779633e-05
-6.459477299358696e-05,1.1528839422680903e-05,-2.646858229127247e-05,2.8707147066597827e-05
-6.354448851197958e-05,2.942056380561553e-05,-2.7634638172457926e-05,2.866954127966892e-05
-6.770014442736283e-05,4.8910103942034766e-05,-2.8229860618012026e-05,2.6785357476910576e-05
-6.768909224774688e-05,6.48435961920768e-05,-2.6855010219151154e-05,2.5379624275956303e-05
-6.114963616710156e-05,7.378796726698056e-05,-2.5596296836738475e-05,2.588188181107398e-05
-5.386932389228605e-05,7.381848263321444e-05,-2.513325853215065e-05,2.8274704163777642e-05
-4.973171598976478e-05,6.410892092389986e-05,-2.40744211623678e-05,2.8333177397144027e-05
-4.673881267081015e-05,5.137603875482455e-05,-2.13700404856354e-05,2.4317474526469596e-05
-4.41024276369717e-05,4.884012378170155e-05,-1.997311119339429e-05,2.2509655536850914e-05
-4.354902921477333e-05,5.487362795975059e-05,-2.035755642282311e-05,2.5965409804484807e-05
-4.411811096360907e-05,5.86156893405132e-05,-2.0136298189754598e-05,2.7707317713066004e-05
-4.3486797949299216e-05,5.7284600188722834e-05,-1.48445496961358e-05,2.333251541131176e-05
-4.264611561666243e-05,5.1920949772465974e-05,-5.4582574193773326e-06,1.991918179555796e-05
-4.252051076036878e-05,4.509862992563285e-05,-1.2825747717215563e-06,2.303249857504852e-05
-4.139040902373381e-05,4.09410749853123e-05,-3.391101245142636e-06,2.874227902793791e-05
-3.717984145623632e-05,3.610617568483576e-05,-2.033074224527809e-06,3.1403960747411475e-05
-3.44395921274554e-05,3.1827476050239056e-05,3.220403868908761e-06,2.8660459065577015e-05
-3.4692653571255505e-05,3.131879202555865e-05,4.090491529495921e-06,2.2503647414851002e-05
-3.7352456274675205e-05,2.9416687539196573e-05,-7.54873690311797e-06,2.1856420062249526e-05
-4.008163887192495e-05,2.929973379650619e-05,-1.9757355403271504e-05,1.9094297385890968e-05
-3.711136741912924e-05,3.133100108243525e-05,-1.6949412383837625e-05,8.949648872658145e-06
-3.766268855542876e-05,2.9556067602243274e-05,-1.436537604604382e-05,9.906028935802169e-06
-4.496633482631296e-05,2.6384548618807457e-05,-3.478526559774764e-05,2.4964774638647214e-05
-5.1876391808036715e-05,2.8174370527267456e-05,-6.992356065893546e-05,3.898123395629227e-05
-5.415592386270873e-05,3.080584428971633e-05,-8.702198101673275e-05,4.487553451326676e-05
-5.3069314162712544e-05,3.155278318445198e-05,-7.343913603108376e-05,4.6219804062275216e-05
-4.805855132872239e-05,3.2004503736970946e-05,-5.167428025742993e-05,4.757973874802701e-05
-4.582726978696883e-05,2.9500910386559553e-05,-4.246184107614681e-05,4.2618310544639826e-05
-5.0905666284961626e-05,2.346501605643425e-05,-4.292235826142132e-05,3.0170911486493424e-05
-5.790982686448842e-05,2.0858744392171502e-05,-4.4891148718306795e-05,1.9993245587102138e-05
-6.2876999436412e-05,2.756252433755435e-05,-4.368119334685616e-05,1.7090036635636352e-05
-6.26236796961166e-05,3.435603139223531e-05,-3.9007161831250414e-05,1.7922178813023493e-05
-6.085108907427639e-05,3.125804505543783e-05,-3.29196554957889e-05,1.8713266399572603e-05
-5.828829307574779e-05,1.853637513704598e-05,-2.7951788069913164e-05,1.9023527784156613e-05
-5.4800733778392896e-05,6.443167421821272e-06,-2.429642881907057e-05,1.8439324776409194e-05
-5.2167313697282225e-05,3.289571395725943e-06,-2.360158941883128e-05,1.7413438399671577e-05
-5.404528565122746e-05,7.669883416383527e-06,-2.613617107272148e-05,1.6850399333634414e-05
-5.956869063084014e-05,1.4449230548052583e-05,-2.844606206053868e-05,1.855480695667211e-05
-6.465460319304839e-05,2.2440131942857988e-05,-3.0758546927245334e-05,2.085300366161391e-05
-6.869350909255445e-05,2.884487548726611e-05,-3.154370642732829e-05,1.9380062440177426e-05
-7.568383443867788e-05,3.029103208973538e-05,-3.070032107643783e-05,1.2694191354967188e-05
-7.913005538284779e-05,3.2602361898170784e-05,-3.14678400172852e-05,4.1791954572545364e-06
-7.812217518221587e-05,3.969260069425218e-05,-2.9438509955070913e-05,-8.518949243807583e-07
-7.601211837027222e-05,4.6550328988814726e-05,-2.7832707928610034e-05,2.294134901603684e-06
-6.701343227177858e-05,4.956112752552144e-05,-2.976294854306616e-05,9.56930307438597e-06
-5.4469557653646916e-05,5.0652521167648956e-05,-2.8823313186876476e-05,1.5381026969407685e-05
-4.747220009448938e-05,4.712514783022925e-05,-2.7186746592633426e-05,1.6114119716803543e-05
-4.5833952754037455e-05,4.2357311031082645e-05,-2.5378434656886384e-05,1.4698645827593282e-05
-4.7848789108684286e-05,4.091893060831353e-05,-1.946103475347627e-05,1.847304702096153e-05
-5.6180953833973035e-05,3.807548637269065e-05,-1.5283805623766966e-05,1.6135079931700602e-05
-6.16440229350701e-05,3.331545667606406e-05,-1.553447509650141e-05,7.182340141298482e-06
-5.9729634813265875e-05,2.81038064713357e-05,-1.490247086621821e-05,3.1502506772085326e-06
-5.38994645467028e-05,2.1249301425996237e-05,-1.1786283721448854e-05,2.4797436708468013e-06
-5.299467738950625e-05,1.3129032595315948e-05,-1.047136538545601e-05,1.5560693782390445e-06
-5.882166442461312e-05,1.1276317309238948e-05,-1.317164242209401e-05,-1.3938358733867062e-06
-6.74839029670693e-05,1.4245407328417059e-05,-1.5697676644776948e-05,-1.7749091512087034e-06
-7.245216693263501e-05,1.4153579286357854e-05,-1.7832247976912186e-05,7.355740763159702e-07
-7.310693763429299e-05,8.518275535607245e-06,-2.186440360674169e-05,3.949999609176302e-06
-7.236799865495414e-05,8.923406085159513e-07,-2.901879997807555e-05,4.234468178765383e-06
-6.944069173187017e-05,-1.7787833712645806e-06,-3.929361264454201e-05,-2.4877331270545255e-06
-6.34448224445805e-05,-3.1667395887780003e-06,-4.932737647322938e-05,-1.2526747923402581e-05
-5.17066873726435e-05,-8.366475412913132e-06,-5.327883627614938e-05,-1.4914446182956453e-05
-3.462042877799831e-05,-1.807377702789381e-05,-5.120572677697055e-05,-1.0303845101589104e-06
-1.0337027561035939e-05,-2.6328851163270883e-05,-4.7412162530235946e-05,2.4021463104872964e-05
1.5172245184658095e-05,-2.3137135940487497e-05,-4.300238288124092e-05,4.5428136218106374e-05
2.39340679399902e-05,-6.565752755705034e-06,-4.138145595788956e-05,5.257425073068589e-05
1.1301586710033007e-05,1.098536540666828e-05,-4.250357596902177e-05,4.9368347390554845e-05
-1.0039045264420565e-05,2.226270044047851e-05,-3.8261412555584684e-05,4.498931593843736e-05
-2.8762375222868286e-05,3.668787030619569e-05,-2.8094173103454523e-05,4.465624442673288e-05
-4.059818820678629e-05,5.6288055930053815e-05,-1.924760545080062e-05,4.978833385393955e-05
-5.398787106969394e-05,7.070200081216171e-05,-1.349977173958905e-05,5.6403889175271615e-05
-6.439752178266644e-05,7.904343510745093e-05,-8.692947631061543e-06,5.701469490304589e-05
-6.913731340318918e-05,8.202042226912454e-05,-6.983156708884053e-06,4.874164369539358e-05
-6.896635750308633e-05,6.162511272123083e-05,-1.1533697943377774e-05,3.708203075802885e-05
-6.092637704568915e-05,2.336599209229462e-05,-1.8820514014805667e-05,2.951029637188185e-05
-5.472557677421719e-05,-3.8840582305965654e-07,-2.4701703296159394e-05,2.442352706566453e-05
-5.7480301620671526e-05,-1.9830733322123706e-07,-2.6149064069613814e-05,1.8128765077563003e-05
-5.633010368910618e-05,1.8134449419449084e-05,-1.6011405023164116e-05,1.5363235434051603e-05
-4.5158391003496945e-05,3.880245640175417e-05,2.7933101591770537e-06,2.3948758098413236e-05
-3.5652668884722516e-05,5.50713375560008e-05,1.822203557821922e-05,3.4406195482006297e-05
-2.8477285013650544e-05,6.840147398179397e-05,2.246641815872863e-05,3.8881546061020344e-05
-2.1289315554895438e-05,7.792910764692351e-05,1.5286590496543795e-05,4.1405852243769914e-05
-1.655343294260092e-05,8.251556573668495e-05,1.1217205155844567e-06,4.281806104700081e-05
-1.8207159882877022e-05,8.037476800382137e-05,-1.3042747013969347e-05,4.266907853889279e-05
-2.468051025061868e-05,7.19150120858103e-05,-2.5202440156135708e-05,4.1426817915635183e-05
-3.2144907891051844e-05,5.7668614317663014e-05,-3.8492391468025744e-05,4.248791083227843e-05
-4.0776161768008024e-05,4.5477368985302746e-05,-5.4272706620395184e-05,4.314878606237471e-05
-5.2169278205838054e-05,3.9793314499547705e-05,-7.050990097923204e-05,3.6870260373689234e-05
-6.103016130509786e-05,4.209759208606556e-05,-7.797628495609388e-05,2.5961488063330762e-05
-6.266320269787684e-05,4.840965993935242e-05,-7.009986438788474e-05,1.8531176465330645e-05
-6.262459646677598e-05,5.326583777787164e-05,-4.966294363839552e-05,1.516678457846865e-05
-6.371009658323601e-05,5.4220869060372934e-05,-2.9290806196513586e-05,1.4761689271836076e-05
-6.210521678440273e-05,5.406999844126403e-05,-2.1098610886838287e-05,1.699709719105158e-05
-5.8786255976883695e-05,5.139475251780823e-05,-2.3700193196418695e-05,1.840914410422556e-05
-5.7710803957888857e-05,4.634107244783081e-05,-2.6249312213622034e-05,1.719255124044139e-05
-6.302296969806775e-05,3.982487032772042e-05,-2.1011415810789913e-05,1.2427479305188172e-05
-7.098632340785116e-05,3.440648288233206e-05,-8.313299986184575e-06,1.036864887282718e-05
-6.837884575361386e-05,3.210913928342052e-05,2.0926290744682774e-06,1.3281322026159614e-05
-6.29652276984416e-05,3.13920209009666e-05,5.061157480668044e-06,1.668215190875344e-05
-6.12170624663122e-05,3.715091952471994e-05,7.602882760693319e-06,2.4662624127813615e-05
-5.540799975278787e-05,5.0209942855872214e-05,9.81819539447315e-06,3.0115133995423093e-05
-5.248313391348347e-05,6.34345124126412e-05,6.156441941129742e-06,2.5334031306556426e-05
-5.704788054572418e-05,6.27928675385192e-05,9.32777425077802e-07,1.5464131138287485e-05
-6.256104097701609e-05,4.405740401125513e-05,-3.860890501528047e-06,4.806833658221876e-06
-6.136611773399636e-05,2.6336138034821488e-05,-1.2552151019917801e-05,-3.0151588816806907e-06
-6.0841710364911705e-05,2.319144368811976e-05,-2.2003094272804447e-05,-3.723444933712017e-06
-6.78882424836047e-05,2.7868556571775116e-05,-2.2089270714786835e-05,2.950710040749982e-06
-7.022504723863676e-05,2.885332469304558e-05,-1.872564280347433e-05,1.0976466910506133e-05
-6.215068424353376e-05,2.1458477931446396e-05,-2.3483245968236588e-05,1.1949035069847014e-05
-5.399892688728869e-05,1.033267835737206e-05,-3.275772905908525e-05,8.399270882364362e-06
-4.8292688006768e-05,4.083799609588823e-08,-3.9768670831108466e-05,1.122231606132118e-05
-4.060557694174349e-05,-5.37100686415215e-06,-4.543043178273365e-05,1.86505258170655e-05
-2.9225486287032254e-05,-5.218077603785787e-06,-5.2837094699498266e-05,2.636601493577473e-05
-1.7042340914485976e-05,1.253859181815642e-06,-5.544870873563923e-05,3.835279494524002e-05
-1.248208627657732e-05,5.22854406881379e-06,-5.0840397307183594e-05,5.597818017122336e-05
-1.891206375148613e-05,2.2202425498107914e-06,-4.451347194844857e-05,7.003896462265402e-05
-3.1601117370883e-05,3.103028518580686e-07,-3.992457641288638e-05,7.085088145686314e-05
-4.17305163864512e-05,1.8287718148712884e-06,-3.6356963391881436e-05,6.0186775954207405e-05
-4.5825945562683046e-05,-4.3565746636886615e-06,-3.2343388738809153e-05,4.5871744077885523e-05
-4.687676118919626e-05,-2.0280833268770948e-05,-2.5877743610180914e-05,3.3887961762957275e-05
-4.903943045064807e-05,-3.325819125166163e-05,-1.9827863070531748e-05,2.937214230769314e-05
-4.9701073294272646e-05,-3.838345219264738e-05,-1.892919681267813e-05,2.977483563881833e-05
-4.74216794827953e-05,-3.7617734051309526e-05,-2.2199481463758275e-05,2.8228916562511586e-05
-4.400320540298708e-05,-3.396871397853829e-05,-2.384192521276418e-05,2.854392005247064e-05
-3.910978193744086e-05,-2.7802032491308637e-05,-1.824268838390708e-05,3.1702125852461904e-05
-3.474462209851481e-05,-1.2325638635957148e-05,-1.2424537089827936e-05,3.112088597845286e-05
-2.98365321214078e-05,1.5923546015983447e-05,-1.3556191333918832e-05,2.579891588538885e-05
-2.369796857237816e-05,4.384471321827732e-05,-1.6161167877726257e-05,1.912303014250938e-05
-1.9733020963030867e-05,6.451205990742892e-05,-1.7915823264047503e-05,1.5219725355564151e-05
-2.0972431229893118e-05,8.325898670591414e-05,-2.049046270258259e-05,1.2878754205303267e-05
-2.6146744858124293e-05,0.00010530107101658359,-2.478949863871094e-05,1.1308547982480377e-05
-2.659950223460328e-05,0.00013367942301556468,-2.9108032322255895e-05,1.1551305760804098e-05
-2.75696802418679e-05,0.00015985440404620022,-2.8329359338385984e-05,1.4023756193637382e-05
-3.6074397939955816e-05,0.0001668688200879842,-1.9247085219831206e-05,1.9541363144526258e-05
-4.877527317148633e-05,0.00015201637870632112,-1.0045822818938177e-05,2.4852157366694883e-05
-6.605983071494848e-05,0.0001243207952938974,-9.702324859972578e-06,2.655754542502109e-05
-8.378044003620744e-05,9.828308975556865e-05,-1.3331969967111945e-05,2.558160304033663e-05
-9.002209117170423e-05,8.036915096454322e-05,-1.3915798263042234e-05,2.483407297404483e-05
-8.20076820673421e-05,6.457690324168652e-05,-1.4022001778357662e-05,2.43661088461522e-05
-6.66640407871455e-05,5.2045026677660644e-05,-2.065220905933529e-05,2.308725379407406e-05
-5.182634049560875e-05,4.7900328354444355e-05,-3.308342274976894e-05,2.1750229279859923e-05
-4.4783857447328046e-05,4.761937088915147e-05,-4.4622167479246855e-05,2.179839248128701e-05
-4.66293167846743e-05,4.4339161831885576e-05,-5.220343518885784e-05,2.3941016479511745e-05
-5.1118197006871924e-05,4.1469884308753535e-05,-5.545123713091016e-05,2.6434652681928128e-05
-5.247329318081029e-05,4.1395254811504856e-05,-5.184394103707746e-05,2.6628198611433618e-05
-5.16616964887362e-05,3.8176425732672215e-05,-4.2922216380247846e-05,2.426152059342712e-05
-4.7243243898265064e-05,3.050777013413608e-05,-3.4865792258642614e-05,2.132104054908268e-05
-4.143055048189126e-05,2.0126017261645757e-05,-3.214689058950171e-05,2.0365618183859624e-05
-4.217266905470751e-05,1.1519979125296231e-05,-3.161248969263397e-05,1.6976646293187514e-05
-4.781915049534291e-05,7.759022992104292e-06,-2.9654009267687798e-05,1.0250244486087468e-05
-5.277138188830577e-05,7.4590061558410525e-06,-2.6302026526536793e-05,8.772251021582633e-06
-5.4501269914908335e-05,5.277654963720124e-06,-1.9402357793296687e-05,1.3966723599878605e-05
-5.335136302164756e-05,-4.60998080598074e-07,-1.2046938536514062e-05,1.982292815227993e-05
-5.568852066062391e-05,-2.8738895707647316e-06,-1.3502311958291102e-05,1.95561078726314e-05
-5.5277327192015946e-05,-6.45185627945466e-06,-2.0690489691332914e-05,2.126438994309865e-05
-5.0570677558425814e-05,-1.1408903446863405e-05,-2.2685651856590994e-05,2.5988523702835664e-05
-5.015074202674441e-05,-1.0747685337264556e-05,-2.3532762497779913e-05,2.708461215661373e-05
-5.758358383900486e-05,-3.126948740828084e-06,-2.867774855985772e-05,2.7499299903865904e-05
-7.084431854309514e-05,6.255947937461315e-06,-3.684906187118031e-05,2.5355580874020234e-05
-7.700858259340748e-05,1.6173216863535345e-05,-4.5294440496945754e-05,2.23661645577522e-05
-7.074437598930672e-05,2.4800076062092558e-05,-4.8437701479997486e-05,2.201005190727301e-05
-5.968755795038305e-05,2.5207264116033912e-05,-4.642757630790584e-05,2.5696897864690982e-05
-5.1369752327445894e-05,1.7157151887658983e-05,-3.9842489059083164e-05,2.566486000432633e-05
-4.879288826487027e-05,1.1088113751611672e-05,-2.9974591598147526e-05,2.2585561964660883e-05
-5.29861863469705e-05,1.8056942280963995e-05,-1.78599057107931e-05,2.2882970370119438e-05
-5.822479215567e-05,3.353528882144019e-05,-8.995441930892412e-06,2.5783052478800528e-05
-5.793473246740177e-05,4.2952575313393027e-05,-6.515959285025019e-06,2.69221327471314e-05
-5.3426843805937096e-05,3.803282743319869e-05,-5.899200914427638e-06,2.371879600104876e-05
-4.9556208978174254e-05,2.6682237148634158e-05,-2.801340542646358e-06,1.804573548724875e-05
-4.9603379011387005e-05,1.977997089852579e-05,-6.005457748869958e-07,1.4168082088872325e-05
-5.3189385653240606e-05,2.0571065761032514e-05,-4.594923666445538e-06,1.232981503562769e-05
-5.988080374663696e-05,2.267382478748914e-05,-1.3273531294544227e-05,1.0824487617355771e-05
-6.798907998017967e-05,2.2409036319004372e-05,-2.355504511797335e-05,1.2931474884680938e-05
-7.32664848328568e-05,2.332745134481229e-05,-3.605159145081416e-05,1.7791100617614575e-05
-7.447060488630086e-05,2.3184518795460463e-05,-4.4705739128403366e-05,2.3185279133031145e-05
-7.065601676004007e-05,1.932459963427391e-05,-3.6631987313739955e-05,2.748557562881615e-05
-6.175099406391382e-05,1.727157723507844e-05,-1.1468449883977883e-05,3.060862945858389e-05
-5.449862510431558e-05,1.823173079174012e-05,1.572214205225464e-05,3.17750709655229e-05
-5.292024070513435e-05,2.0429702999535948e-05,2.8115751774748787e-05,3.136784289381467e-05
-5.6260862038470805e-05,2.239650348201394e-05,2.4208788090618327e-05,3.140273111057468e-05
-5.5987326049944386e-05,2.658659650478512e-05,4.478754362935433e-06,3.0825642170384526e-05
-5.322722063283436e-05,2.79864852927858e-05,-1.4948622265364975e-05,2.865517853933852e-05
-5.755715028499253e-05,2.1542355170822702e-05,-2.8467806259868667e-05,2.7705187676474452e-05
-6.515468703582883e-05,1.9579954823711887e-05,-4.488798003876582e-05,2.8985474273213185e-05
-6.849411875009537e-05,2.545152347011026e-05,-6.515621498692781e-05,3.051908788620494e-05
-6.16863471805118e-05,3.436873521422967e-05,-8.575293031753972e-05,2.9498201911337674e-05
-5.189139847061597e-05,4.333724791649729e-05,-8.975400851340964e-05,2.6961553885485046e-05
-4.730942964670248e-05,4.752101085614413e-05,-6.875070539535955e-05,2.3103717467165552e-05
-5.05460484419018e-05,4.2038569517899305e-05,-4.112916940357536e-05,2.0745734218508005e-05
-5.2523206250043586e-05,3.2768155506346375e-05,-3.039741022803355e-05,2.147490158677101e-05
-4.4567692384589463e-05,2.6647732738638297e-05,-3.412336081964895e-05,2.3467915525543503e-05
-3.5629218473332e-05,2.7141943064634688e-05,-3.908895450877026e-05,2.5013736376422457e-05
-3.588365507312119e-05,3.5442604712443426e-05,-3.732614641194232e-05,2.4907263650675304e-05
-4.2347517592133954e-05,4.3009393266402185e-05,-3.2664895115885884e-05,2.1595209545921534e-05
-4.695485040429048e-05,4.424397775437683e-05,-3.0508081181324087e-05,1.757518657541368e-05
-4.928526686853729e-05,4.150761742494069e-05,-3.454433681326918e-05,1.5693714885856025e-05
-4.7897014155751094e-05,3.966480289818719e-05,-4.2871743062278256e-05,1.633603824302554e-05
-4.3365249439375475e-05,4.0530034311814234e-05,-4.5349028368946165e-05,1.8505095795262605e-05
-4.0178918425226584e-05,4.2523894080659375e-05,-3.614621527958661e-05,1.9152146705891937e-05
-4.2076972022186965e-05,4.264816016075201e-05,-2.170987136196345e-05,1.8641931092133746e-05
-4.677876131609082e-05,4.178382005193271e-05,-1.5034287571324967e-05,1.891083775262814e-05
-4.727168561657891e-05,3.979491157224402e-05,-1.8170432667830028e-05,1.9961516954936087e-05
-3.992770507466048e-05,3.608412225730717e-05,-2.1814545107190497e-05,1.9751609215745702e-05
-3.214668686268851e-05,3.236777411075309e-05,-2.165053774660919e-05,1.648821671551559e-05
-2.7596630388870835e-05,2.8769647542503662e-05,-2.0494931959547102e-05,1.2950347809237428e-05
-2.7748104912461713e-05,2.6509942472330295e-05,-1.920538124977611e-05,1.2219201380503364e-05
-3.170260970364325e-05,2.8091193598811515e-05,-1.9700266420841217e-05,1.1660348718578462e-05
-3.549941175151616e-05,3.063088297494687e-05,-1.8458884369465522e-05,1.4119538718659896e-05
-3.240335718146525e-05,3.2420055504189804e-05,-1.4254685083869845e-05,1.912979132612236e-05
-2.5344450477859937e-05,3.1349347409559414e-05,-7.920713869680185e-06,2.204124211857561e-05
-2.7422644052421674e-05,2.4949053113232367e-05,-3.406948394513165e-07,2.1831712729181163e-05
-3.6815832572756335e-05,2.1657840989064425e-05,-6.526524884975515e-07,2.5998993805842474e-05
-4.4972832256462425e-05,2.7676365789375268e-05,-1.2214481103001162e-05,3.056383866351098e-05
-4.290963624953292e-05,3.9950489735929295e-05,-1.8778535377350636e-05,3.1319512345362455e-05
-3.675759580801241e-05,5.0072743761120364e-05,-1.3672886780113913e-05,3.359719266882166e-05
-3.548020322341472e-05,5.56746672373265e-05,-6.9017464738863055e-06,3.5842142096953467e-05
-4.0230068407254294e-05,5.2837684052065015e-05,-2.8519002626126166e-06,3.3764234103728086e-05
-4.4354561396175995e-05,4.693681694334373e-05,-3.3382957553840242e-06,2.9722050385316834e-05
-4.696090400102548e-05,4.2826548451557755e-05,-1.0162885700992774e-05,2.9314742278074846e-05
-5.0382092013023794e-05,4.1641756979515776e-05,-2.3891701857792214e-05,3.0452349164988846e-05
-5.10484169353731e-05,4.781025563715957e-05,-3.907393693225458e-05,3.231740993214771e-05
-4.998194344807416e-05,5.6080894864862785e-05,-5.418557702796534e-05,3.3236468880204484e-05
-5.1761609938694164e-05,5.516170494956896e-05,-6.876235420349985e-05,3.065709461225197e-05
-5.626440906780772e-05,4.447695755516179e-05,-7.5780444603879e-05,2.5681903935037553e-05
-5.845278792548925e-05,3.768115129787475e-05,-6.975093856453896e-05,2.255496656289324e-05
-6.11267751082778e-05,3.877164635923691e-05,-5.423353650257923e-05,2.188973121519666e-05
-6.462298188125715e-05,3.91437133657746e-05,-3.6920282582286745e-05,2.3048105504130945e-05
-6.27458211965859e-05,2.7998003133689053e-05,-2.7269095880910754e-05,2.0643983589252457e-05
-5.8564095525071025e-05,1.0048172043752857e-05,-3.109692261205055e-05,1.2193584552733228e-05
-5.9692945796996355e-05,-2.6929660634777974e-07,-3.907097925548442e-05,6.173332167236367e-06
-6.395445961970836e-05,3.555315515768598e-06,-4.240304042468779e-05,7.434055532939965e-06
-6.99353331583552e-05,1.5522067769779824e-05,-4.5588025386678055e-05,1.0023963113781065e-05
-7.175037899287418e-05,2.3453254470950924e-05,-5.1811519369948655e-05,6.932261840120191e-06
-6.442526500904933e-05,2.3543536372017115e-05,-5.5651460570516065e-05,3.098528623013408e-06
-5.5155116569949314e-05,2.546502582845278e-05,-5.493075877893716e-05,6.972699793550419e-06
-5.046789738116786e-05,2.3690980015089735e-05,-4.624219945981167e-05,1.6098716514534317e-05
-4.290604920242913e-05,2.0077985027455725e-05,-3.143843059660867e-05,2.2962476577959023e-05
-3.54506446456071e-05,2.1920692233834416e-05,-2.5376264602527954e-05,2.6123047064174898e-05
-3.6045079468749464e-05,2.4830069378367625e-05,-2.9855878892703913e-05,2.7785727070295252e-05
-4.330663432483561e-05,3.08425587718375e-05,-3.429685966693796e-05,2.9470194931491278e-05
-4.899797204416245e-05,3.569917316781357e-05,-3.5762950574280694e-05,2.9469792934833094e-05
-4.8816702474141493e-05,3.380954512977041e-05,-3.186348112649284e-05,2.8277356250328012e-05
-4.678981349570677e-05,2.510262856958434e-05,-2.396126728854142e-05,2.7454178052721545e-05
-4.506735422182828e-05,1.2139574209868442e-05,-1.7260648746741936e-05,2.6016266929218546e-05
-4.4074986362829804e-05,3.1990857678465545e-06,-1.1586386790440883e-05,2.477228917996399e-05
-4.020100459456444e-05,7.46913110560854e-06,-6.977302291488741e-06,2.6225990950479172e-05
-3.822019789367914e-05,1.7400274373358116e-05,-6.4547048168606125e-06,2.853352634701878e-05
-4.113067188882269e-05,2.32495858654147e-05,-1.0312111044186167e-05,2.843893707904499e-05
-4.670620910474099e-05,2.5545581593178213e-05,-1.5812795027159154e-05,2.866320573957637e-05
-4.86406461277511e-05,2.9891287340433337e-05,-2.254170431115199e-05,3.078096779063344e-05
-4.9505870265420526e-05,3.56775926775299e-05,-2.8236981961526908e-05,3.0974013498052955e-05
-5.0952086894540116e-05,4.096675183973275e-05,-2.9043500035186298e-05,2.843442234734539e-05
-5.2411378419492394e-05,4.51223058917094e-05,-2.4071381631074473e-05,2.5809607905102894e-05
-5.748559851781465e-05,4.5456316001946107e-05,-1.83931588253472e-05,2.3085078282747418e-05
-6.452062370954081e-05,4.3305968574713916e-05,-1.651758429943584e-05,2.016496546275448e-05
-6.898000719957054e-05,4.186484147794545e-05,-1.6123814930324443e-05,1.9010472897207364e-05
-7.257218385348096e-05,4.320759035181254e-05,-1.3045353625784628e-05,2.179283183068037e-05
-7.902765355538577e-05,4.6886696509318426e-05,-9.044578291650396e-06,2.636312274262309e-05
-7.937962800497189e-05,4.8783025704324245e-05,-7.350947726081358e-06,2.532410690037068e-05
-6.990293331909925e-05,4.862327841692604e-05,-4.016680577478837e-06,1.9472303392831236e-05
-5.913891800446436e-05,4.9348309403285384e-05,-1.5478245813937974e-06,1.8221197024104185e-05
-4.804413401870988e-05,4.532505045062862e-05,-3.220586904717493e-06,1.9817869542748667e-05
-3.337664020364173e-05,3.68874279956799e-05,-7.901686331024393e-06,2.0903620679746382e-05
-2.553605372668244e-05,3.195761382812634e-05,-1.055589564202819e-05,2.449647945468314e-05
-2.6091040126630105e-05,3.077097062487155e-05,-9.911398592521437e-06,2.9289460144354962e-05
-2.445723657729104e-05,3.585139711503871e-05,-1.2921784218633547e-05,2.9217339033493772e-05
-2.3636752302991226e-05,4.7970166633604094e-05,-2.049825525318738e-05,2.58660402323585e-05
-2.4684370146133006e-05,5.2894498367095366e-05,-2.569314710854087e-05,2.4757200662861578e-05
-2.2191121388459578e-05,4.5135300752008334e-05,-2.297573519172147e-05,2.2958418412599713e-05
-1.9275872546131723e-05,2.900519575632643e-05,-2.1208588805166073e-05,2.1467829355970025e-05
-2.304990448465105e-05,3.545800154824974e-06,-2.4276618205476552e-05,2.156263690267224e-05
-3.258911601733416e-05,-2.1074311007396318e-05,-2.77136259683175e-05,2.3619766579940915e-05
-3.7615158362314105e-05,-2.251417754450813e-05,-2.816873529809527e-05,2.5268496756325476e-05
-3.602399010560475e-05,-1.0789689213197562e-06,-2.753824446699582e-05,2.461979784129653e-05
-3.328702587168664e-05,2.3043390683596954e-05,-2.765753924904857e-05,2.6765423172037117e-05
-3.632392326835543e-05,3.686785566969775e-05,-3.050974919460714e-05,3.11694348056335e-05
-4.6178138290997595e-05,4.276627441868186e-05,-3.539477620506659e-05,3.2367166568292305e-05
-5.7150100474245846e-05,4.87813595100306e-05,-3.9725226088194177e-05,3.1624142138753086e-05
-6.602534995181486e-05,5.9422887716209516e-05,-4.5533699449151754e-05,3.364381336723454e-05
-7.46159566915594e-05,7.024949445622042e-05,-5.254330608295277e-05,3.402091169846244e-05
-8.159889694070444e-05,7.096173067111522e-05,-5.6700577260926366e-05,2.8071473934687674e-05
-8.20563145680353e-05,5.8102712500840425e-05,-4.758021896122955e-05,2.0986521121812984e-05
-7.61881165090017e-05,4.052212170790881e-05,-1.901008545246441e-05,2.2192734832060523e-05
-6.458035204559565e-05,2.863800364139024e-05,1.8859731426346116e-05,2.874251913453918e-05
-4.977091884939e-05,2.968334774777759e-05,4.5032600610284135e-05,3.184920933563262e-05
-4.535432162811048e-05,4.2522675357759e-05,5.454237907542847e-05,3.192730218870565e-05
-4.974059629603289e-05,5.109768608235754e-05,5.245047577773221e-05,3.1690804462414235e-05
-5.306478851707652e-05,5.065239383839071e-05,4.170044121565297e-05,2.9566546800197102e-05
-5.536407115869224e-05,5.125124880578369e-05,2.5625198759371415e-05,2.7752199457609095e-05
-5.5966400395845994e-05,5.068987229606137e-05,5.41568454082153e-07,3.0994753615232185e-05
-5.5053427786333486e-05,4.3671119783539325e-05,-4.466475002118386e-05,3.4823737223632634e-05
-5.428037911769934e-05,3.5648867196869105e-05,-9.934784611687064e-05,3.865425969706848e-05
-5.719425098504871e-05,2.214823143731337e-05,-0.00012622812937479466,4.214580258121714e-05
-6.366562593029812e-05,8.705881555215456e-06,-0.00011087873281212524,3.979823304689489e-05
-7.533863390563056e-05,1.5265710828771262e-07,-8.013732440304011e-05,3.341938281664625e-05
-8.372613956453279e-05,-5.679767127730884e-06,-6.436688272515312e-05,2.7580259484238923e-05
-8.147143671521917e-05,-6.393472176569048e-06,-6.472637323895469e-05,2.3739243260934018e-05
-7.335263217100874e-05,-4.931396233587293e-07,-6.177567411214113e-05,2.1082272724015638e-05
-6.729835877195e-05,9.808141840039752e-06,-4.4523134420160204e-05,1.813078415580094e-05
-6.607870454899967e-05,1.4072912563278805e-05,-2.358389610890299e-05,1.3149854567018338e-05
-6.442335870815441e-05,9.62607555266004e-06,-1.5368848835350946e-05,7.643326171091758e-06
-6.392133218469098e-05,4.398219516588142e-06,-2.3616914404556155e-05,6.8327144617796876e-06
-6.6112115746364e-05,8.43112138682045e-06,-3.590891355997883e-05,1.0685808774724137e-05
-6.839401612523943e-05,2.114943345077336e-05,-3.9641305193072185e-05,1.2809451618522871e-05
-6.928303628228605e-05,3.692332757054828e-05,-3.526279397192411e-05,1.3394645066000521e-05
-6.872598896734416e-05,5.082035931991413e-05,-2.9738235753029585e-05,1.6682190107530914e-05
-6.355985533446074e-05,5.816178600070998e-05,-2.792228951875586e-05,2.1294088583090343e-05
-5.631172098219395e-05,5.4595500841969624e-05,-2.912463605753146e-05,2.3601769498782232e-05
-5.3157888032728806e-05,4.432664718478918e-05,-2.848619442374911e-05,2.370469519519247e-05
-5.356332621886395e-05,3.704151822603308e-05,-1.6131714801304042e-05,2.6223795430269092e-05
-5.440156382974237e-05,3.0113375032669865e-05,1.9194882042938843e-05,3.1776442483533174e-05
-5.2346018492244184e-05,1.800557947717607e-05,6.564171053469181e-05,3.386625030543655e-05
-4.589723903336562e-05,4.829237241210649e-06,0.00010317413398297504,3.454936813795939e-05
-3.8725058402633294e-05,-9.662276312383256e-08,0.00011444674601079896,3.703983384184539e-05
-3.132960046059452e-05,6.309882337518502e-06,8.737204188946635e-05,3.932752588298172e-05
-2.844835580617655e-05,1.9175029592588544e-05,3.130711047560908e-05,4.186201476841234e-05
-3.337059388286434e-05,2.1849444237886928e-05,-2.7717402190319262e-05,4.0945320506580174e-05
-3.4181386581622064e-05,1.3296113138494547e-05,-8.53052843012847e-05,3.666761767817661e-05
-3.21358056680765e-05,9.205527021549642e-06,-0.00014395064499694854,3.154894875478931e-05
-2.8973587177461013e-05,8.172950401785783e-06,-0.0001689726486802101,3.102263872278854e-05
-2.7043779482482933e-05,8.08253389550373e-06,-0.0001559201773488894,3.1859675800660625e-05
-2.676802068890538e-05,8.460765457130037e-06,-0.00012617190077435225,2.7504465833771974e-05
-2.953252987936139e-05,1.6905203665373847e-05,-8.694483403814957e-05,2.1019630366936326e-05
-3.9081900467863306e-05,3.722644396475516e-05,-4.641469786292873e-05,1.3147856407158542e-05
-4.3979067413602024e-05,6.335331272566691e-05,-2.4387414669035934e-05,7.052223281789338e-06
-4.356524004833773e-05,8.631582750240341e-05,-2.2839036319055595e-05,3.547792630342883e-06
-4.3275496864225715e-05,0.00010159724479308352,-2.3964854335645214e-05,-4.0578854054729163e-07
-4.545167030300945e-05,0.00010173506598221138,-2.2206382709555328e-05,-6.253610081330407e-06
-4.654163421946578e-05,8.274405263364315e-05,-2.1583327907137573e-05,-9.284906809625681e-06
-4.267643089406192e-05,5.590333239524625e-05,-1.1934796930290759e-05,-3.896540420100791e-06
-3.4879238228313625e-05,3.517305231071077e-05,1.723166678857524e-05,8.96284564078087e-06
-2.846047209459357e-05,3.1462128390558064e-05,5.543153383769095e-05,2.2390426238416694e-05
-2.783242416626308e-05,4.4193882786203176e-05,9.02334286365658e-05,3.055101842619479e-05
-3.227529305149801e-05,5.8592428104020655e-05,0.00010530375584494323,3.372134960955009e-05
-3.505948552628979e-05,5.556126416195184e-05,8.081045234575868e-05,3.187557740602642e-05
-3.2412597647635266e-05,3.988805110566318e-05,1.1217911378480494e-05,2.4225659217336215e-05
-3.229474896215834e-05,2.9151728085707873e-05,-8.288567187264562e-05,1.4249499145080335e-05
-3.9690239646006376e-05,3.2092117180582136e-05,-0.00016730703646317124,1.2702663298114203e-05
-4.953601091983728e-05,4.2732768633868545e-05,-0.00018450753123033792,2.7607376978266984e-05
-5.4539283155463636e-05,4.925438406644389e-05,-0.00010707319597713649,5.023568883189e-05
-5.440269524115138e-05,4.281770816305652e-05,-5.070985480415402e-06,6.332684279186651e-05
-5.218109436100349e-05,3.187136462656781e-05,6.76835625199601e-05,5.855888230144046e-05
-4.932477531838231e-05,3.2102088880492374e-05,0.0001317782880505547,4.034447192680091e-05
-4.957506462233141e-05,4.2692539864219725e-05,0.0001496235781814903,2.4960188966360874e-05
-5.354670065571554e-05,5.158135900273919e-05,7.701175491092727e-05,1.490781687607523e-05
-6.1327766161412e-05,5.300969860400073e-05,-7.41065523470752e-05,1.030565908877179e-05
-6.909325020387769e-05,4.805347271030769e-05,-0.0002490173792466521,1.2242971934028901e-05
-6.868944910820574e-05,4.542302849586122e-05,-0.0003550182154867798,1.3227403542259708e-05
-6.53634560876526e-05,4.5933062210679054e-05,-0.0003052613465115428,1.3730990758631378e-05
-6.396416574716568e-05,4.31192311225459e-05,-0.0001351810642518103,7.946963705762755e-06
-6.625403329962865e-05,3.724799898918718e-05,1.342760424449807e-05,-2.9711623028561007e-06
-6.65829938952811e-05,2.9782193450955674e-05,7.384877244476229e-05,-1.1427584468037821e-05
-6.0790211136918515e-05,1.6843539924593642e-05,5.558092743740417e-05,-1.3043160834058654e-05
-5.459650856209919e-05,-4.040868589072488e-06,9.558644705975894e-06,-1.1007676221197471e-05
-5.07973600178957e-05,-2.0447410861379467e-05,-2.2794452888774686e-05,-7.844664651202038e-06
-4.896888276562095e-05,-2.0015262634842657e-05,-2.999745265697129e-05,-2.0814268282265402e-06
-5.015918213757686e-05,-6.380728791555157e-06,-2.6159841581829824e-05,8.049320967984386e-06
-5.4680996981915087e-05,3.532817345330841e-06,-2.197962203354109e-05,2.0669769583037123e-05
-6.335584475891665e-05,2.882078206312144e-06,-2.0239827790646814e-05,2.7894144295714796e-05
-7.002666097832844e-05,5.478440243678051e-07,-2.3082669940777123e-05,2.848291478585452e-05
-7.00710661476478e-05,3.730457592610037e-06,-2.8203096007928252e-05,2.812947059283033e-05
-6.979401223361492e-05,6.615511210839031e-06,-2.990241591760423e-05,2.991812834807206e-05
-6.904943438712507e-05,2.108203716488788e-06,-1.877946669992525e-05,3.1831907108426094e-05
-6.127807864686474e-05,-4.902074124402134e-06,5.3003118409833405e-06,3.231102164136246e-05
-4.939733480568975e-05,2.6104207790922374e-06,3.29765462083742e-05,2.9756098228972405e-05
-4.2621337343007326e-05,2.9567834644694813e-05,4.744858597405255e-05,2.49587665166473e-05
-4.0137510950444266e-05,6.071883763070218e-05,4.231428829370998e-05,1.9723300283658318e-05
-3.589555126382038e-05,7.398344314424321e-05,2.2298811018117703e-05,1.7619177015149035e-05
-3.126134834019467e-05,6.875744293211028e-05,5.5180930758069735e-06,2.1690539142582566e-05
-2.802577000693418e-05,5.843377948622219e-05,-6.042851055099163e-07,2.8620630473596975e-05
-2.46179351961473e-05,4.65813500341028e-05,-9.965488061425276e-07,3.047624159080442e-05
-2.132542613253463e-05,3.1390074582304806e-05,-2.1319840470823692e-07,3.0271690775407478e-05
-1.9552308003767394e-05,1.637844616197981e-05,-2.1850992197869346e-06,2.8922473575221375e-05
-2.7175925424671732e-05,1.4964846741349902e-05,-5.84496365263476e-06,2.7890184355783276e-05
-4.346595596871339e-05,2.8397156711434945e-05,-7.041905519145075e-06,2.8883960112580098e-05
-5.671295366482809e-05,4.394449570099823e-05,-7.710378667979967e-06,2.8106071113143116e-05
-5.63883368158713e-05,4.991040987079032e-05,-8.939101462601684e-06,2.337546720809769e-05
-5.4089010518509895e-05,4.7616922529414296e-05,-1.12976331365644e-05,2.0488039808697067e-05
-5.460836837301031e-05,4.070061550009996e-05,-1.3413326996669639e-05,2.392602436884772e-05
-5.3491316066356376e-05,3.4758013498503715e-05,-1.9935647287638858e-05,2.9822534997947514e-05
-5.006893115933053e-05,3.021428346983157e-05,-2.89457257167669e-05,3.5086250136373565e-05
-4.430228000273928e-05,2.2145582988741808e-05,-3.476258279988542e-05,3.5740133171202615e-05
-4.0965056541608647e-05,1.026105928758625e-05,-3.997423846158199e-05,3.492823816486634e-05
-4.0591978176962584e-05,-3.299608579254709e-06,-4.795532004209235e-05,3.8098420191090554e-05
-4.1118055378319696e-05,-1.3630916328111198e-05,-5.69963849557098e-05,4.287126284907572e-05
-3.822128564934246e-05,-1.5005089153419249e-05,-6.399147969204932e-05,4.3287716835038736e-05
-3.249896690249443e-05,-3.6214555620972533e-06,-7.006232772255316e-05,4.181024996796623e-05
-2.7470317945699207e-05,1.4880578419251833e-05,-6.942096661077812e-05,4.126984640606679e-05
-2.5143152015516534e-05,3.271873720223084e-05,-5.6186006986536086e-05,4.198871101834811e-05
-2.6607545805745758e-05,4.969618021277711e-05,-3.311378168291412e-05,4.341485691838898e-05
-3.256445415900089e-05,6.517543079098687e-05,-1.3165678865334485e-05,4.124447877984494e-05
-3.473231117823161e-05,7.315103721339256e-05,-7.3872029133781325e-06,3.5077406209893525e-05
-3.512517287163064e-05,7.675669621676207e-05,-1.504705232946435e-05,3.1813891837373376e-05
-4.064413224114105e-05,8.230217645177618e-05,-2.0173903976683505e-05,3.106338044744916e-05
-5.1539162086555734e-05,9.392749052494764e-05,-1.376420732412953e-05,2.908082024077885e-05
-5.9938185586361215e-05,0.00010840288450708613,-6.275159648794215e-06,2.869385207304731e-05
-6.022406159900129e-05,0.00010830618703039363,-1.3599206795333885e-05,2.930217669927515e-05
-5.803725798614323e-05,8.670849638292566e-05,-2.6333413188694976e-05,2.9130003895261325e-05
-5.651377796311863e-05,6.42460145172663e-05,-2.323624175915029e-05,2.979490818688646e-05
-5.792486990685575e-05,5.0977181672351435e-05,-9.264161235478241e-06,3.0925803002901375e-05
-6.080643288441934e-05,4.17657065554522e-05,-2.213805828432669e-06,3.35154400090687e-05
-6.292241596383974e-05,4.062753214384429e-05,-8.454330782114994e-06,3.231440132367425e-05
-6.151344132376835e-05,5.4777232435299084e-05,-1.6053054423537105e-05,2.6376181267551146e-05
-5.3789270168635994e-05,7.42162810638547e-05,-1.8206283129984513e-05,2.5252982595702633e-05
-4.599082240019925e-05,8.081982377916574e-05,-1.8918657588073984e-05,2.903515996877104e-05
-4.515101318247616e-05,7.120637746993452e-05,-2.1413046852103435e-05,3.078500594710931e-05
-5.0953978643519804e-05,5.353837332222611e-05,-2.7476135073811747e-05,2.774514905468095e-05
-5.823042738484219e-05,3.8785339711466804e-05,-3.450796066317707e-05,2.5983765226555988e-05
-6.175475573400036e-05,2.8299720725044608e-05,-3.862978337565437e-05,2.9115672077750787e-05
-6.270094309002161e-05,1.9125613107462414e-05,-3.8936083001317456e-05,3.1582138035446405e-05
-6.468118954217061e-05,7.724427632638253e-06,-3.670918522402644e-05,2.7637875973596238e-05
-6.630248390138149e-05,-4.033620371046709e-06,-2.3484446501242928e-05,2.0452842363738455e-05
-6.535486318171024e-05,-1.4446683962887619e-05,4.64718777948292e-06,1.6465404769405723e-05
-6.287516589509323e-05,-2.219495399913285e-05,2.9227139748400077e-05,1.5682464436395094e-05
-5.93243858020287e-05,-2.3938862796057947e-05,2.8753824153682217e-05,1.5350397006841376e-05
-5.390764999901876e-05,-2.01240909518674e-05,-3.718077152825572e-07,1.5974124835338444e-05
-4.8927668103715405e-05,-1.744120891089551e-05,-4.809956226381473e-05,1.882312062662095e-05
-4.9227935960516334e-05,-1.7455990018788725e-05,-9.842215513344854e-05,2.1148527594050393e-05
-5.2753799536731094e-05,-1.2819443327316549e-05,-0.00014990604540798813,2.072482129733544e-05
-5.333903027349152e-05,-4.9819850573840085e-06,-0.00019838610023725778,1.812151458580047e-05
-4.8000263632275164e-05,-4.0287513911607675e-06,-0.00018751270545180887,1.3309607311384752e-05
-3.880544318235479e-05,-1.293882723985007e-05,-9.136423614108935e-05,6.285569270403357e-06
-3.219261998310685e-05,-2.413129186606966e-05,1.6023650459828787e-05,-8.644896354326193e-08
-3.336064037284814e-05,-3.0910443456377834e-05,6.532981205964461e-05,-5.722172772948397e-06
-3.768058377318084e-05,-3.424182068556547e-05,4.6096603909973055e-05,-1.0523122909944504e-05
-3.322376869618893e-05,-3.607420148910023e-05,8.002450158528518e-06,-8.385787623410579e-06
-2.4563514671172015e-05,-3.3728032576618716e-05,-1.1536531019373797e-05,-1.2443836112652207e-06
-2.5140105208265595e-05,-2.2542770238942467e-05,-1.727053677313961e-05,5.916121153859422e-06
-3.293842382845469e-05,-7.500013907701941e-06,-1.357769451715285e-05,7.840107173251454e-06
-3.7335081287892535e-05,2.2827437078376533e-06,-1.6008711099857464e-05,1.2463806342566386e-05
-3.5294400731800124e-05,8.9427521743346e-06,-2.1247520635370165e-05,2.0827366824960336e-05
-3.194902092218399e-05,1.730929216137156e-05,-2.353400668653194e-05,2.226498327217996e-05
-3.2013485906645656e-05,3.0632942070951685e-05,-2.0876670532743447e-05,2.030595533142332e-05
-3.6059049307368696e-05,5.5815515224821866e-05,-1.892172258521896e-05,1.9754806999117136e-05
-4.121663005207665e-05,9.367281018057838e-05,-1.6947484255069867e-05,2.3655733457417227e-05
-4.637637539417483e-05,0.00012498162686824799,-1.2642540241358802e-05,2.9062874091323465e-05
-5.485618385137059e-05,0.0001325432676821947,-5.947190402366687e-06,3.370393824297935e-05
-6.778026727261022e-05,0.00012093204713892192,4.238617634655384e-07,3.629393540904857e-05
-8.249149686889723e-05,0.0001054871900123544,1.889270180299718e-07,3.5026881960220635e-05
-9.51949623413384e-05,9.328046871814877e-05,-5.096166205476038e-06,3.0845047149341553e-05
-9.777892410056666e-05,8.794511813903227e-05,-1.2827937098336406e-05,2.9818414986948483e-05
-8.866630378179252e-05,9.072644752450287e-05,-2.273292193422094e-05,3.40996339218691e-05
-7.847185042919591e-05,9.206160029862076e-05,-3.472074604360387e-05,3.757266313186847e-05
-7.192387420218438e-05,8.206271741073579e-05,-4.421999983605929e-05,3.339624163345434e-05
-6.084048072807491e-05,6.499950541183352e-05,-5.2261068049119785e-05,2.490559927537106e-05
-4.53307329735253e-05,5.284578583086841e-05,-4.791573519469239e-05,2.20204601646401e-05
-3.647183984867297e-05,5.035497451899573e-05,-1.7493739505880512e-05,2.5543367883074097e-05
-3.6946988984709606e-05,4.8789930588100106e-05,2.2260872356127948e-05,3.0128630896797404e-05
-4.182360862614587e-05,3.772125273826532e-05,3.86721731047146e-05,2.9201575671322644e-05
-4.301095395931043e-05,2.6272740797139704e-05,3.199851926183328e-05,2.3289698219741695e-05
-3.944803756894544e-05,2.2608088329434395e-05,1.2996442819712684e-05,1.2952520592079964e-05
-3.663479219540022e-05,2.1293786630849354e-05,-1.654410152696073e-05,5.758276984124677e-06
-3.3393444027751684e-05,1.867573882918805e-05,-5.5093321861932054e-05,5.338619757822016e-06
-3.450343865551986e-05,1.5849920600885525e-05,-0.00010081727668875828,7.651903615624178e-06
-4.223096402711235e-05,1.7096233932534233e-05,-0.00012681192310992628,1.3861663319403306e-05
-5.105760646983981e-05,2.3892313038231805e-05,-9.118494199356064e-05,1.571508437336888e-05
-5.63636131118983e-05,3.104692223132588e-05,-9.311656867794227e-06,1.4124038898444269e-05
-5.399220754043199e-05,3.235899566789158e-05,5.7742992794374004e-05,1.4439017832046375e-05
-4.630378680303693e-05,3.053548789466731e-05,7.427162199746817e-05,1.6028096069931053e-05
-4.145993443671614e-05,2.7809936000267044e-05,5.2527997468132526e-05,1.52843367686728e-05
-4.141042154515162e-05,2.4939588911365718e-05,1.6903508367249742e-05,1.4903504961694125e-05
-4.074236494489014e-05,2.5449899112572894e-05,-3.078996451222338e-05,1.7588183254702017e-05
-4.072488081874326e-05,2.7115152988699265e-05,-8.957278623711318e-05,2.165489422623068e-05
-4.256541433278471e-05,2.998972740897443e-05,-0.00013489375123754144,2.5288160031777807e-05
