-2.3540187612525187e-05,2.698303978831973e-05,-1.1139736670884304e-05,6.582892820006236e-05
-2.8475822546170093e-05,2.922103158198297e-05,-7.558454854006413e-06,6.614826270379126e-05
-3.052683314308524e-05,3.506709253997542e-05,-7.610232387378346e-06,6.48277928121388e-05
-2.4890108761610463e-05,3.954319981858134e-05,-9.804237379285041e-06,6.440019205911085e-05
-1.8229713532491587e-05,4.3165557144675404e-05,-1.168723883893108e-05,6.654841126874089e-05
-1.6705917005310766e-05,4.4658092519966885e-05,-1.06617817436927e-05,6.672216841252521e-05
-1.8009563063969836e-05,4.577914660330862e-05,-1.1376037036825437e-05,6.624330126214772e-05
-2.143338497262448e-05,4.390078902360983e-05,-1.3477752872859128e-05,6.807968020439148e-05
-2.3649978174944408e-05,3.586701859603636e-05,-1.3941190445621032e-05,6.897321145515889e-05
-2.2947046090848744e-05,2.6671857995097525e-05,-1.2854646229243372e-05,6.718296936014667e-05
-2.1001202185289003e-05,2.600036714284215e-05,-1.2061433153576218e-05,6.349818431772292e-05
-1.9698243704624474e-05,3.08573835354764e-05,-1.1223417459405027e-05,5.984805466141552e-05
-1.9932938812416978e-05,3.2494946935912594e-05,-9.992735613195691e-06,5.8043719036504626e-05
-2.108627450070344e-05,3.0491044526570477e-05,-1.0902953363256529e-05,5.874864291399717e-05
-2.1337900761864148e-05,2.8248901799088344e-05,-1.1839095350296702e-05,6.130195106379688e-05
-2.0406765543157235e-05,2.759671042440459e-05,-1.0995257980539463e-05,6.566415686393157e-05
-2.0392513761180453e-05,2.7602956834016368e-05,-9.4460974651156e-06,6.867564661661163e-05
-1.96105356735643e-05,2.8605798434000462e-05,-9.17414672585437e-06,6.836942338850349e-05
-1.9312043150421232e-05,3.0434692234848626e-05,-8.714567229617387e-06,6.583912181667984e-05
-2.1073443349450827e-05,3.257049320382066e-05,-9.944972589437384e-06,6.476627459051087e-05
-2.0995004888391122e-05,3.0639672331744805e-05,-1.2980888641322963e-05,6.297749496297911e-05
-1.9240133042330854e-05,2.5338165869470686e-05,-1.360765327262925e-05,6.156966264825314e-05
-2.1858788386452943e-05,1.7233927792403847e-05,-1.0461359124747105e-05,6.0998059780104086e-05
-2.819129076669924e-05,1.464055912947515e-05,-9.45662395679392e-06,5.912958295084536e-05
-2.938786565209739e-05,1.3554721590480767e-05,-1.217680073750671e-05,5.8208137488691136e-05
-2.6095744033227675e-05,6.066291462047957e-06,-1.3866443623555824e-05,6.0930375184398144e-05
-2.2488049580715597e-05,7.2627135523362085e-06,-1.2380086445773486e-05,6.602980283787474e-05
-2.336712714168243e-05,1.7065074644051492e-05,-7.567904958705185e-06,6.813792424509302e-05
-3.0358471121871844e-05,2.2212774638319388e-05,-3.3426342724851565e-06,6.571230915142223e-05
-3.4674754715524614e-05,1.9171258827554993e-05,-2.7013979888579343e-06,6.257354834815487e-05
-3.6849593016086146e-05,1.9302799046272412e-05,-5.263600087346276e-06,6.455164839280769e-05
-3.734773054020479e-05,2.4468394258292392e-05,-8.48827858135337e-06,6.65206607664004e-05
-3.329119863337837e-05,2.510296144464519e-05,-1.075621821655659e-05,6.367596506606787e-05
-2.978315023938194e-05,2.1481797375599854e-05,-1.1604156497924123e-05,5.987106851534918e-05
-2.847209179890342e-05,2.0495450371527113e-05,-9.53095695876982e-06,5.97904363530688e-05
-2.8735779778799042e-05,2.6353192879469134e-05,-4.9445557124272455e-06,6.0780541389249265e-05
-2.914460128522478e-05,3.142996138194576e-05,-1.023051822812704e-06,6.148107058834285e-05
-2.982285150210373e-05,3.096137152169831e-05,3.8233213217608863e-07,6.149060936877504e-05
-3.059162918361835e-05,2.5778157578315586e-05,-1.2480355735533522e-06,5.921294359723106e-05
-3.107033990090713e-05,2.2199870727490634e-05,-5.054919711255934e-06,5.486653026309796e-05
-3.0083179808571003e-05,1.924046955537051e-05,-9.31964041228639e-06,4.7154764615697786e-05
-2.8270082111703232e-05,1.3964413483336102e-05,-1.0664960427675396e-05,4.195630026515573e-05
-2.823039176291786e-05,8.11541121947812e-06,-7.6051360338169616e-06,4.315972910262644e-05
-2.8699227186734788e-05,5.447225248644827e-06,-5.727060397475725e-06,4.687056934926659e-05
-2.8766027753590606e-05,5.821041213494027e-06,-6.677446890535066e-06,4.9226331611862406e-05
-2.7245379897067323e-05,6.638566901528975e-06,-5.7122429097944405e-06,4.923939559375867e-05
-2.661636426637415e-05,7.922952136141248e-06,-4.47412548965076e-06,4.7618737880839035e-05
-2.9880215151933953e-05,5.5765149227227084e-06,-5.904471890971763e-06,4.5221298933029175e-05
-3.063565236516297e-05,1.0687111853258102e-06,-8.52080756885698e-06,4.7053992602741346e-05
-2.7664207664201967e-05,5.935578883509152e-06,-9.839418453339022e-06,5.193127799429931e-05
-2.9709837690461427e-05,2.0639148715417832e-05,-7.352412012551213e-06,5.385198164731264e-05
-3.3124924812000245e-05,2.9454127798089758e-05,-2.6423224426253e-06,5.420404704636894e-05
-3.455133628449403e-05,2.5165985789499246e-05,-1.402683551532391e-06,5.631850581266917e-05
-3.53445575456135e-05,1.7015514458762482e-05,-6.0149368437123485e-06,6.104289786890149e-05
-3.464833207544871e-05,1.733135650283657e-05,-1.223411709361244e-05,6.041446977178566e-05
-3.086330616497435e-05,2.5471399567322806e-05,-1.3834063793183304e-05,5.549908019020222e-05
-2.5223609554814175e-05,3.4696131478995085e-05,-8.018555490707513e-06,5.410099038272165e-05
-2.467894410074223e-05,3.7651945604011416e-05,-2.673436711120303e-06,5.7723678764887154e-05
-2.6882085876422934e-05,3.767234011320397e-05,-4.375624484964646e-06,6.159623444546014e-05
-2.7129368390887976e-05,4.073222225997597e-05,-9.265952940040734e-06,6.04786146141123e-05
-2.428931838949211e-05,4.0164755773730576e-05,-1.1253034244873561e-05,5.6275948736583814e-05
-2.1076319171697833e-05,3.368546822457574e-05,-1.1586141226871405e-05,5.351562504074536e-05
-2.046179724857211e-05,2.830847915902268e-05,-1.2560343748191372e-05,5.2549978136084974e-05
-2.2023319615982473e-05,3.00574774882989e-05,-1.207287914439803e-05,5.190291267354041e-05
-2.428226071060635e-05,3.386421303730458e-05,-8.513366083207075e-06,5.22271147929132e-05
-2.7063493689638563e-05,2.899582432291936e-05,-6.244816631806316e-06,5.559764395002276e-05
-2.9646809707628563e-05,2.4578941520303488e-05,-7.935886060295161e-06,5.910481559112668e-05
-2.9667253329535015e-05,3.1957832106854767e-05,-8.610018085164484e-06,5.904345744056627e-05
-2.7060066713602282e-05,4.25865946453996e-05,-4.8701526793593075e-06,5.989927740301937e-05
-2.4301010853378102e-05,4.347030335338786e-05,-4.807505433745973e-07,6.088204827392474e-05
-2.3376034732791595e-05,3.584563091862947e-05,-1.036117964758887e-06,5.899765164940618e-05
-2.278938700328581e-05,2.781122202577535e-05,-4.929770511807874e-06,5.6907338148448616e-05
-2.30323857977055e-05,2.5367866328451782e-05,-1.026130030368222e-05,5.7737950555747375e-05
-2.6030367735074833e-05,2.5004968847497366e-05,-1.4951893717807252e-05,6.016292900312692e-05
-2.9798031391692348e-05,2.0348779798951e-05,-1.556593088025693e-05,6.192443834152073e-05
-3.059443042729981e-05,1.5144136341405101e-05,-1.2154104297223967e-05,6.0914924688404426e-05
-3.0508701456710696e-05,1.5382303899968974e-05,-8.598939530202188e-06,6.001014116918668e-05
-2.9721819373662584e-05,1.7840158761828206e-05,-1.3094799214741215e-05,6.10156130278483e-05
-2.6622939913067967e-05,1.9409362721489742e-05,-2.0481298633967526e-05,5.895761933061294e-05
-2.646792563609779e-05,1.581441392772831e-05,-1.8994549463968724e-05,5.4057738452684134e-05
-2.6621708457241766e-05,1.2644158232433256e-05,-1.4095356164034456e-05,5.0358848966425285e-05
-2.3693059119977988e-05,1.8009761333814822e-05,-1.1371541404514574e-05,5.025217978982255e-05
-2.2212969270185567e-05,2.3429030989063904e-05,-1.3222692359704524e-05,5.278229946270585e-05
-2.353008312638849e-05,2.4638964532641694e-05,-1.5188645193120465e-05,5.517831596080214e-05
-2.217787732661236e-05,2.1769576051156037e-05,-1.3866319022781681e-05,5.791394505649805e-05
-1.7662678146734834e-05,2.4924904209910892e-05,-1.2238093404448591e-05,5.7558358093956485e-05
-1.9648316083475947e-05,2.621332896524109e-05,-1.402029738528654e-05,5.298172982293181e-05
-2.6604111553751864e-05,2.169034087273758e-05,-1.9918086763937026e-05,4.970136797055602e-05
-3.134852522634901e-05,2.124937418557238e-05,-2.268607568112202e-05,5.2470870286924765e-05
-2.9596825697808526e-05,2.4572154870838858e-05,-1.9728337065316737e-05,5.8302819525124505e-05
-2.5567180273355916e-05,2.5793522581807338e-05,-1.6825781131046824e-05,6.171231507323682e-05
-2.2836688003735617e-05,2.456479523971211e-05,-1.5487528798985295e-05,6.0466350987553596e-05
-2.256894549645949e-05,2.4944241886259988e-05,-1.2851062820118386e-05,6.041076994733885e-05
-2.545207280491013e-05,2.8815818950533867e-05,-9.288119144912343e-06,6.510539969895035e-05
-2.7835878427140415e-05,3.485196066321805e-05,-6.260710051719798e-06,6.644362292718142e-05
-2.517681241442915e-05,3.704359187395312e-05,-6.807498266425682e-06,6.310251774266362e-05
-1.996038918150589e-05,3.5004904930246994e-05,-1.0144388397748116e-05,6.078984006308019e-05
-1.9581344531616196e-05,3.3352214813930914e-05,-1.2019298083032481e-05,6.316979852272198e-05
-2.1914422177360393e-05,3.311294494778849e-05,-1.1893156624864787e-05,6.699113873764873e-05
-2.070806840492878e-05,2.6724594135885127e-05,-1.2351474651950411e-05,6.819250120315701e-05
-1.7669926819507964e-05,1.586437974765431e-05,-1.2563373275042977e-05,6.71914967824705e-05
-1.7353795556118712e-05,1.0440628102514893e-05,-1.3102354387228843e-05,6.806736200815067e-05
-1.8451053620083258e-05,1.2269854778423905e-05,-1.4505844774248544e-05,6.76429335726425e-05
-2.190446866734419e-05,2.0040661183884367e-05,-1.6248677638941444e-05,6.422414298867807e-05
-2.0074203348485753e-05,3.0412962587433867e-05,-1.5181249182205647e-05,6.401724385796115e-05
-1.4258484952733852e-05,3.267725696787238e-05,-1.0002908311435021e-05,6.421426951419562e-05
-1.1423127943999134e-05,2.8674252462224104e-05,-5.35682784175151e-06,6.190147541929036e-05
-1.3791795026918408e-05,2.7017653337679803e-05,-2.194788294218597e-06,5.919900650042109e-05
-1.7881298845168203e-05,3.03365432046121e-05,-1.5685091057093814e-06,6.158635369502008e-05
-1.9824265109491535e-05,3.092205588473007e-05,-3.4131062420783564e-06,6.530378595925868e-05
-2.1771857063868083e-05,2.4537755962228402e-05,-4.785302280652104e-06,6.364828732330352e-05
-2.2332060325425118e-05,2.4004459191928618e-05,-4.178554718237137e-06,5.866164792678319e-05
-2.2533662558998913e-05,3.4440548915881664e-05,-3.218975734853302e-06,5.429946759250015e-05
-2.1697873307857662e-05,4.0981882193591446e-05,-4.584394446283113e-06,5.386027987697162e-05
-2.256734478578437e-05,4.026225724373944e-05,-1.0107097295986023e-05,5.579638309427537e-05
-2.6309147870051675e-05,3.5204360756324604e-05,-1.458510450902395e-05,5.9570033045019954e-05
-2.851752105925698e-05,2.840105844370555e-05,-1.0063357876788359e-05,6.218921043910086e-05
-2.706474879232701e-05,2.7949563445872627e-05,-1.0184193115492235e-06,6.284778646659106e-05
-2.434796806483064e-05,3.219627251382917e-05,2.5724714305397356e-06,6.145595398265868e-05
-2.294169280503411e-05,3.220255166525021e-05,-2.25258850150567e-06,6.0004382248735055e-05
-2.3648195565328933e-05,2.7605739887803793e-05,-8.250633982243016e-06,5.961872739135288e-05
-2.786797449516598e-05,2.4758244762779213e-05,-8.746050298213959e-06,6.0394802858354524e-05
-3.31135634041857e-05,2.3159902411862276e-05,-5.418266027845675e-06,6.401711289072409e-05
-3.604938319767825e-05,1.8800225006998517e-05,-3.3184221592819085e-06,6.877274427097291e-05
-3.878675488522276e-05,1.568378684169147e-05,-5.434115337266121e-06,7.004105282248929e-05
-4.175721187493764e-05,1.855596565292217e-05,-9.057391253008973e-06,6.749481690349057e-05
-4.164560232311487e-05,2.1013962395954877e-05,-9.584870895196218e-06,6.437226693378761e-05
-3.612626824178733e-05,2.1095551346661523e-05,-8.888304364518262e-06,6.363998545566574e-05
-2.803355710057076e-05,1.9146122212987393e-05,-1.2138383681303822e-05,6.184046651469544e-05
-2.271329503855668e-05,1.2744020750687923e-05,-1.960418012458831e-05,5.530495036509819e-05
-2.0750365365529433e-05,4.97705104862689e-06,-2.185251832997892e-05,5.172357487026602e-05
-1.999704727495555e-05,6.4658875089662615e-06,-1.715104554023128e-05,4.7939745854819193e-05
-2.0759425751748495e-05,9.76274077402195e-06,-1.3432561900117435e-05,4.544049079413526e-05
-2.03554991458077e-05,1.3865343134966679e-05,-1.3735186257690657e-05,4.668788824346848e-05
-1.792198236216791e-05,2.3165348466136493e-05,-1.6630849131615832e-05,4.759731382364407e-05
-1.813104609027505e-05,2.690682049433235e-05,-1.671581958362367e-05,4.8191326641244814e-05
-2.300683263456449e-05,2.89589097519638e-05,-1.398127460561227e-05,4.87955694552511e-05
-2.7712387236533687e-05,3.15008765028324e-05,-1.2062453606631607e-05,4.9554593715583906e-05
-2.456738548062276e-05,2.965594467241317e-05,-1.4968301002227236e-05,4.94014639116358e-05
-2.3516578949056566e-05,2.3188726117950864e-05,-2.0465917259571142e-05,5.042432894697413e-05
-2.9137661840650253e-05,1.682970832916908e-05,-2.1384372303145938e-05,5.083014548290521e-05
-3.592369466787204e-05,1.5551353499176912e-05,-1.603743112355005e-05,5.377471825340763e-05
-3.680985901155509e-05,1.879520459624473e-05,-1.0952904631267302e-05,5.803895692224614e-05
-3.366166856721975e-05,2.1612449927488342e-05,-1.0105325600306969e-05,6.0339600167935714e-05
-3.268269938416779e-05,1.868496292445343e-05,-9.920822776621208e-06,6.369272887241095e-05
-3.134069629595615e-05,1.4896542779752053e-05,-9.852264156506862e-06,6.683980609523132e-05
-2.8371923690428957e-05,1.4809130334469955e-05,-1.0359370207879692e-05,6.659797509200871e-05
-2.384642903052736e-05,1.936871740326751e-05,-9.74410431808792e-06,6.611210847040638e-05
-2.175779445678927e-05,2.6559562684269622e-05,-8.432427421212196e-06,6.841374124633148e-05
-2.364374086027965e-05,3.1447230867343023e-05,-7.78193771111546e-06,7.027078390819952e-05
-2.6628005798556842e-05,2.8091359126847237e-05,-7.033456768112956e-06,6.893723184475675e-05
-2.9017444830969907e-05,2.4993529223138466e-05,-8.880017048795708e-06,6.427419430110604e-05
-3.160530832246877e-05,3.03582946798997e-05,-1.1906858162546996e-05,6.1303551774472e-05
-3.0160610549501143e-05,3.614192974055186e-05,-1.2435348253347911e-05,6.045394184184261e-05
-2.6534684366197325e-05,4.0522325434722006e-05,-1.1155767424497753e-05,6.06180437898729e-05
-2.0479277736740187e-05,4.204228025628254e-05,-1.003638499241788e-05,6.206964462762699e-05
-1.4981597814767156e-05,4.2072068026755005e-05,-1.0208033017988782e-05,6.339020183077082e-05
-1.490502563683549e-05,4.435627852217294e-05,-7.461180302925641e-06,6.287097494350746e-05
-1.7570806448929943e-05,3.7436529964907095e-05,-3.2511259178136243e-06,5.896213770029135e-05
-2.0473182303248905e-05,2.4125021809595637e-05,4.90394995722454e-07,5.435076309368014e-05
-1.9125332983094268e-05,1.8287248167325743e-05,1.5652522051823325e-06,5.288223837851547e-05
-1.6550655345781706e-05,2.075182055705227e-05,-9.114255590247922e-07,5.520968625205569e-05
-2.0487756046350114e-05,2.8197453502798453e-05,-6.811625894442841e-07,5.83642722631339e-05
-2.6617188268573955e-05,3.405912502785213e-05,2.1500470666069305e-06,5.9623147535603493e-05
-3.0592476832680404e-05,3.273338370490819e-05,4.259370143699925e-06,6.022812522132881e-05
-3.334416396683082e-05,2.373783900111448e-05,2.3653265088796616e-06,5.977320688543841e-05
-3.3493164664832875e-05,1.696769322734326e-05,-1.619825638954353e-06,5.880023309146054e-05
-3.2225951144937426e-05,1.381037145620212e-05,-5.132419119036058e-06,5.758743645856157e-05
-3.283238402218558e-05,1.5357880329247564e-05,-8.459452146780677e-06,5.6369975936831906e-05
-3.393040242372081e-05,2.0165998648735695e-05,-8.17815543996403e-06,5.463653724291362e-05
-3.406291943974793e-05,2.3764210709487088e-05,-4.778358288604068e-06,5.550812420551665e-05
-3.214435855625197e-05,2.2270234694587998e-05,-2.5396552700840402e-06,5.8714380429591984e-05
-2.848755320883356e-05,2.096078242175281e-05,-3.4529136883065803e-06,5.9748810599558055e-05
-2.6842384613701142e-05,2.1427538740681484e-05,-5.762800356023945e-06,5.8632169384509325e-05
-2.8629612643271685e-05,2.0461338863242418e-05,-6.327498340397142e-06,6.0396789194783196e-05
-3.094537532888353e-05,1.7078973542083986e-05,-5.0204484978166874e-06,6.46647167741321e-05
-2.858040352293756e-05,1.3674597539647948e-05,-5.400798272603424e-06,6.595164450118318e-05
-2.43273771047825e-05,1.1873807125084568e-05,-8.313310900120996e-06,6.40993457636796e-05
-2.2110169084044173e-05,7.731893674645107e-06,-1.2196416719234549e-05,6.266665877774358e-05
-2.2335705580189824e-05,3.865075996145606e-06,-1.5160841940087266e-05,6.136563024483621e-05
-2.469466380716767e-05,3.280024657215108e-06,-1.2922828318551183e-05,5.870367385796271e-05
-2.70123673544731e-05,7.618559720867779e-06,-8.317882020492107e-06,6.054166442481801e-05
-2.6014462491730228e-05,1.9218952729715966e-05,-8.742350473767146e-06,6.730062159476802e-05
-2.2917527530808002e-05,3.353094871272333e-05,-1.4081140761845745e-05,7.227811875054613e-05
-2.0255367417121306e-05,3.7028759834356606e-05,-1.691780926194042e-05,6.959142774576321e-05
-1.9183162294211797e-05,3.0814393539913e-05,-1.6389256416005082e-05,6.418724660761654e-05
-1.909455568238627e-05,2.4933409804361872e-05,-1.3176852917240467e-05,6.3715735450387e-05
-2.288963514729403e-05,2.6271365641150624e-05,-1.0073422345158178e-05,6.896344712004066e-05
-2.5567460397724062e-05,2.9424043532344513e-05,-8.954153599916026e-06,6.988766836002469e-05
-2.3328675524680875e-05,2.9486482162610628e-05,-5.668363883160055e-06,6.160345947137102e-05
-2.3026492272038013e-05,2.4113631297950633e-05,-3.807304665315314e-06,5.2395414968486875e-05
-2.5007781005115248e-05,1.6911821148823947e-05,-4.637933216145029e-06,4.731609078589827e-05
-2.5328081392217427e-05,8.597773557994515e-06,-6.809343176428229e-06,4.604931746143848e-05
-2.125868013536092e-05,9.118475645664148e-06,-8.382844498555642e-06,4.666660606744699e-05
-1.6326437616953626e-05,1.9109002096229233e-05,-9.131152182817459e-06,4.848594107897952e-05
-1.6920321286306717e-05,2.817235690599773e-05,-8.662677828397136e-06,5.18217493663542e-05
-2.1490817744052038e-05,3.277727955719456e-05,-8.733155482332222e-06,5.24690913152881e-05
-2.3286142095457762e-05,3.1794243113836274e-05,-9.727255928737577e-06,5.061957926955074e-05
-2.5582390662748367e-05,3.0237924875109456e-05,-1.2012703336949926e-05,5.033745037508197e-05
-3.0412093110498972e-05,2.9701268431381322e-05,-1.480988157709362e-05,5.2424136811168864e-05
-3.154545265715569e-05,3.0178936867741868e-05,-1.521237845736323e-05,5.472274642670527e-05
-2.7961928935837932e-05,2.8281770937610418e-05,-1.5230131793941837e-05,5.91250900470186e-05
-2.561372093623504e-05,2.3608516130479984e-05,-1.756301753630396e-05,6.219893111847341e-05
-2.6380519557278603e-05,1.9583863831940107e-05,-2.0154306184849702e-05,6.0431353631429374e-05
-2.87605871562846e-05,2.2876567527418956e-05,-1.8189442926086485e-05,5.823498577228747e-05
-2.755117202468682e-05,2.8410822778823785e-05,-1.4240115888242144e-05,5.73886172787752e-05
-2.2633132175542414e-05,2.6664738470572047e-05,-1.4182974155119155e-05,5.685691212420352e-05
-2.114281232934445e-05,1.7536845916765742e-05,-1.8527867723605596e-05,5.412724567577243e-05
-2.249910539831035e-05,9.647397746448405e-06,-1.9905806766473688e-05,5.1429080485831946e-05
-2.216020948253572e-05,1.0360834494349547e-05,-1.625372897251509e-05,5.089226760901511e-05
-2.237414264527615e-05,1.5129424355109222e-05,-1.588305167388171e-05,5.050186882726848e-05
-2.5393019313924015e-05,1.7277079678024165e-05,-2.316901918675285e-05,5.0221111450809985e-05
-2.6483732654014602e-05,2.2482945496449247e-05,-2.7276591936242767e-05,4.961343438480981e-05
-2.4055818357737735e-05,2.2640870156465098e-05,-2.158777351723984e-05,4.6905835915822536e-05
-2.2348018319462426e-05,1.3197452062740922e-05,-1.1809974239440635e-05,4.708784763352014e-05
-2.2420887034968473e-05,8.195461305149365e-06,-5.60965509066591e-06,5.080781193100847e-05
-2.002542169066146e-05,1.167524987977231e-05,-5.540521669900045e-06,5.6376182328676805e-05
-2.0549843611661345e-05,1.654565494391136e-05,-8.837136192596518e-06,6.17517507635057e-05
-2.3148155378294177e-05,1.765383240126539e-05,-1.2507353858381975e-05,6.439550634240732e-05
-2.3175429305410944e-05,1.9320610590511933e-05,-1.5633377188351005e-05,6.199011841090396e-05
-2.300498636031989e-05,2.2459660613094456e-05,-1.4642362657468766e-05,5.638224683934823e-05
-2.567547016951721e-05,2.3146503735915758e-05,-1.0405852663097903e-05,5.2793951908824965e-05
-2.838773980329279e-05,2.093916555168107e-05,-9.443704584555235e-06,5.4221603932091966e-05
-2.7416559532866813e-05,2.0167430193396285e-05,-1.183353379019536e-05,5.8014349633594975e-05
-2.5594985345378518e-05,2.2068797989049926e-05,-1.2127926311222836e-05,5.766274989582598e-05
-2.538329135859385e-05,2.488861900928896e-05,-1.1364390957169235e-05,5.345560930436477e-05
-2.8301541533437558e-05,2.6857596822082996e-05,-1.342232553724898e-05,5.090878767077811e-05
-3.1608833523932844e-05,3.0271423383965157e-05,-1.4290110811998602e-05,5.157410487299785e-05
-3.099938840023242e-05,3.584984733606689e-05,-1.0155893505725544e-05,5.1229599193902686e-05
-2.6901092496700585e-05,4.028175681014545e-05,-7.0565397436439525e-06,4.6429755457211286e-05
-2.5148137865471654e-05,4.253501174389385e-05,-1.0701303835958242e-05,4.273781814845279e-05
-2.6858746423386037e-05,4.0927556256065145e-05,-1.4811294931860175e-05,4.5306784159038216e-05
-2.8550077331601642e-05,3.449269206612371e-05,-1.3534225217881612e-05,5.092395804240368e-05
-2.7819745810120367e-05,2.9607383112306707e-05,-1.2422760846675374e-05,5.3166921134106815e-05
-2.5272724087699316e-05,3.18154416163452e-05,-1.701909422990866e-05,5.0469789130147547e-05
-2.5387636924278922e-05,3.379161353223026e-05,-1.8491291484679095e-05,4.3558815377764404e-05
-2.742523793131113e-05,3.186090907547623e-05,-1.290794534725137e-05,3.763478889595717e-05
-2.825513183779549e-05,3.082692273892462e-05,-8.669808266859036e-06,4.056591205880977e-05
-2.8138656489318237e-05,3.343596472404897e-05,-7.841919796192087e-06,4.6282326366053894e-05
-2.591758493508678e-05,4.26247606810648e-05,-5.609347681456711e-06,4.698252087109722e-05
-2.4671222490724176e-05,4.699818236986175e-05,6.389552709151758e-07,4.9160473281517625e-05
-2.3098793462850153e-05,4.06841209041886e-05,2.8309245863056276e-06,5.486883674166165e-05
-2.117604344675783e-05,3.845239552902058e-05,-4.224353233439615e-06,5.5706648709019646e-05
-1.853888898040168e-05,3.7377998523879796e-05,-1.3914357623434626e-05,5.862763282493688e-05
-2.039791434071958e-05,3.177787220920436e-05,-1.9349332433193922e-05,6.200061761774123e-05
-2.3411683287122287e-05,2.75957918347558e-05,-1.6019945178413764e-05,6.387478060787544e-05
-2.4475730242556892e-05,2.7702018996933475e-05,-1.1280972103122622e-05,6.824373122071847e-05
-2.688435597519856e-05,2.9524628189392388e-05,-9.850839887803886e-06,7.249403279274702e-05
-2.6963216441799887e-05,3.227731940569356e-05,-1.148161663877545e-05,7.262491999426857e-05
-2.737836075539235e-05,3.897381611750461e-05,-1.2457335287763271e-05,6.894341640872881e-05
-2.8403552278177813e-05,4.062094012624584e-05,-8.80058178154286e-06,6.826565368101001e-05
-3.130552067887038e-05,3.405268944334239e-05,-2.459030611134949e-06,7.002241909503937e-05
-3.126706724287942e-05,2.805546682793647e-05,6.793270586058497e-07,7.067857950460166e-05
-2.9139109756215475e-05,2.6493567929719575e-05,-1.147948296420509e-06,6.682309322059155e-05
-2.9234470275696367e-05,2.5910712793120183e-05,-5.120592504681554e-06,6.36226759525016e-05
-3.381202623131685e-05,2.438761839584913e-05,-7.6036785685573705e-06,6.539125752169639e-05
-3.7371944927144796e-05,2.1624926375807263e-05,-6.4280411606887355e-06,6.768316234229133e-05
-3.4517426684033126e-05,1.3865716937289108e-05,-3.844132152153179e-06,6.604436202906072e-05
-2.9671844458789565e-05,4.064399490744108e-06,-2.1757298327429453e-06,6.292056059464812e-05
-2.7791886168415658e-05,4.727457962871995e-06,-3.030303560080938e-06,5.960552880424075e-05
-2.8756336178048514e-05,1.6624098861939274e-05,-3.997439307568129e-06,5.687648808816448e-05
-3.0297964258352295e-05,2.3296310246223584e-05,-2.75967659035814e-06,5.584540849667974e-05
-3.115876825177111e-05,1.959698238351848e-05,-1.223576706621543e-08,5.596776099991985e-05
-3.060351446038112e-05,1.825888830353506e-05,7.43749922094139e-07,5.6082397350110114e-05
-2.7659159968607128e-05,2.038760248979088e-05,1.410812387803162e-06,5.551946742343716e-05
-2.3973656425368972e-05,1.7753965948941186e-05,3.464838528088876e-06,5.71545388083905e-05
-2.3725036953692324e-05,1.9781173250521533e-05,5.898592462472152e-06,5.933614374953322e-05
-2.7789621526608244e-05,2.9090435418765992e-05,5.887473434995627e-06,5.811055234516971e-05
-3.08622038573958e-05,3.266778730903752e-05,1.8453521306582843e-06,5.509185211849399e-05
-3.149305848637596e-05,2.7712954761227593e-05,-5.740270808018977e-06,5.666743891197257e-05
-2.8694130378426053e-05,2.3721784600638784e-05,-1.1036115211027209e-05,6.457947893068194e-05
-2.380472324148286e-05,2.5994442694354802e-05,-1.1247736438235734e-05,6.965168722672388e-05
-2.379593934165314e-05,2.6121264454559423e-05,-9.715533451526426e-06,6.908509385539219e-05
-2.5432675101910718e-05,2.397971366008278e-05,-6.1921682572574355e-06,6.824622687418014e-05
-2.7949856303166598e-05,2.3639830033062026e-05,-2.1305345399014186e-06,6.548308010678738e-05
-2.9220240321592428e-05,1.8377219021203928e-05,-8.09848529570445e-07,6.231904262676835e-05
-2.9249213184812106e-05,9.920835509547032e-06,-3.231464461350697e-06,6.160690827528015e-05
-2.7250305720372126e-05,5.431445060821716e-06,-8.828744284983259e-06,6.266035052249208e-05
-2.7007741664419882e-05,8.15010480437195e-06,-1.5352041373262182e-05,6.484788173111156e-05
-2.786736331472639e-05,1.522902039141627e-05,-1.8736558558885008e-05,6.652888259850442e-05
-2.7564168703975156e-05,2.304779081896413e-05,-1.7493084669695236e-05,6.308529555099085e-05
-2.698418938962277e-05,2.503429823264014e-05,-1.3625004612549674e-05,5.809528011013754e-05
-2.7298050554236397e-05,1.960264125955291e-05,-1.1254935088800266e-05,5.59922082175035e-05
-3.0006940505700186e-05,1.38627374326461e-05,-1.1031338544853497e-05,5.4604206525254995e-05
-3.20244871545583e-05,1.2222311852383427e-05,-8.975353011919651e-06,5.4958549299044535e-05
-3.0676324968226254e-05,1.3968819985166192e-05,-4.228185844112886e-06,5.801508450531401e-05
-2.8119977287133224e-05,1.808713932405226e-05,-1.3853705240762793e-06,5.9846755902981386e-05
-2.8859387384727597e-05,2.2936883397051133e-05,-2.753793069132371e-06,5.759410487371497e-05
-3.295768692623824e-05,2.832522841345053e-05,-5.364746357372496e-06,5.435783168650232e-05
-3.5920311347581446e-05,3.33314819727093e-05,-6.075654255255358e-06,5.326501923264004e-05
-3.313884008093737e-05,3.0419903850997798e-05,-6.141920493973885e-06,5.296316521707922e-05
-3.22027008223813e-05,2.4862280042725615e-05,-7.616383754793787e-06,5.424930350272916e-05
-3.0369392334250733e-05,2.8879265300929546e-05,-1.2490722838265356e-05,5.668380617862567e-05
-2.2573924070456997e-05,3.7041107134427875e-05,-1.7335089069092646e-05,5.8495785197010264e-05
-1.7579845007276163e-05,3.607464168453589e-05,-1.6180874808924273e-05,6.0620877775363624e-05
-1.8044467651634477e-05,2.671691072464455e-05,-1.3633941307489295e-05,5.814850374008529e-05
-2.1211917555774562e-05,2.2259115212364122e-05,-1.3171061254979577e-05,5.5489392252638936e-05
-2.6424631869303994e-05,2.5380601073266007e-05,-1.3062023754173424e-05,5.650264574796893e-05
-3.0485067327390425e-05,2.5769806597963907e-05,-1.4287717931438237e-05,6.094698983361013e-05
-2.8815802579629235e-05,2.277088242408354e-05,-1.6881655028555542e-05,6.54433315503411e-05
-2.3381735445582308e-05,1.7214530089404434e-05,-1.8961913156090304e-05,6.343473069136962e-05
-2.469475475663785e-05,1.619244721950963e-05,-1.724791400192771e-05,5.836554555571638e-05
-2.6696785425883718e-05,2.0550427507259883e-05,-1.293779041589005e-05,5.4745134548284113e-05
-2.383174614806194e-05,2.3971379050635733e-05,-9.787879207578953e-06,5.6279935961356387e-05
-2.2189893570612185e-05,2.5850207748590037e-05,-1.0055518032459076e-05,5.9489626437425613e-05
-2.4700564608792774e-05,2.5943787477444857e-05,-1.2274389519006945e-05,6.042648237780668e-05
-2.9174530936870724e-05,2.4496270270901732e-05,-1.2156335287727416e-05,5.862125181010924e-05
-3.079179805354215e-05,2.5732679205248132e-05,-9.46372892940417e-06,5.3271473007043824e-05
-2.7931664590141736e-05,2.994341957673896e-05,-6.824046522524441e-06,4.7082176024559885e-05
-2.338584090466611e-05,3.571379784261808e-05,-8.00284124125028e-06,4.5311790017876774e-05
-2.1869414922548458e-05,3.692676909849979e-05,-1.1882578291988466e-05,4.8755806346889585e-05
-2.4048169507295825e-05,2.8544676752062514e-05,-1.4375453247339465e-05,5.270931069389917e-05
-2.671345828275662e-05,2.0591462089214474e-05,-1.4979333172959741e-05,5.1505387091310695e-05
-2.643917832756415e-05,2.1077270503155887e-05,-1.4079878383199684e-05,4.9287602450931445e-05
-2.6291419999324717e-05,2.7810800020233728e-05,-1.1753251783375163e-05,5.158377825864591e-05
-2.8157763154013082e-05,3.529325113049708e-05,-1.2321663234615698e-05,5.2049952500965446e-05
-2.890044925152324e-05,3.97184667235706e-05,-1.5027121662569698e-05,5.1406692364253104e-05
-2.5573521270416677e-05,3.6541896406561136e-05,-1.498178426118102e-05,5.199592487770133e-05
-1.7738007954903878e-05,3.132795245619491e-05,-1.3140574083081447e-05,5.21296460647136e-05
-1.3477284483087715e-05,2.924570071627386e-05,-1.1179100511071738e-05,5.288676038617268e-05
-1.4862253920000512e-05,2.9180708224885166e-05,-1.242783764610067e-05,5.92000360484235e-05
-1.1936181181226857e-05,2.590088661236223e-05,-1.6628870071144775e-05,6.250396108953282e-05
-8.16140618553618e-06,1.807349326554686e-05,-1.9240866095060483e-05,5.71783930354286e-05
-1.0177214790019207e-05,1.5278192222467624e-05,-1.949236866494175e-05,5.180612424737774e-05
-1.3665093320014421e-05,2.2337138943839818e-05,-1.7740156181389466e-05,4.744610851048492e-05
-1.5205054296529852e-05,3.319906318210997e-05,-1.6940966816036962e-05,4.5643439079867676e-05
-1.5049138710310217e-05,3.6246197851141915e-05,-1.9057006284128875e-05,4.8203335609287024e-05
-1.3800059605273418e-05,3.0281493309303187e-05,-1.836398951127194e-05,5.230548413237557e-05
-1.8131464457837865e-05,2.5771883883862756e-05,-1.567275648994837e-05,5.476111618918367e-05
-2.4285294784931466e-05,2.7487449187901802e-05,-1.5178751709754579e-05,5.5840610002633184e-05
-2.633333861012943e-05,2.939471414720174e-05,-1.4538234609062783e-05,5.72699609620031e-05
-2.4835451768012717e-05,2.5079623810597695e-05,-1.270469329028856e-05,5.9724818129325286e-05
-2.4234881493612193e-05,1.9847017028951086e-05,-1.20703498396324e-05,5.9241858252789825e-05
-2.748109181993641e-05,1.5109999367268756e-05,-1.4210090739652514e-05,5.98941624048166e-05
-3.052719694096595e-05,1.2689733011939097e-05,-1.6697396858944558e-05,6.31732473266311e-05
-2.9258852009661496e-05,1.455207802791847e-05,-1.5606357919750735e-05,6.451112130889669e-05
-2.4038345145527273e-05,1.6590513041592203e-05,-1.1775303391914349e-05,6.323280103970319e-05
-2.030461655522231e-05,1.1400055882404558e-05,-8.071970114542637e-06,6.10487477388233e-05
-2.043763561232481e-05,4.29811370850075e-06,-6.179142474138644e-06,6.031775410519913e-05
-2.2525564418174326e-05,5.643504209729144e-06,-8.431914466200396e-06,6.0768270486732945e-05
-2.1162499251659028e-05,1.5154594620980788e-05,-1.3118909919285215e-05,6.062961620045826e-05
-2.00838712771656e-05,2.099495759466663e-05,-1.4504378668789286e-05,5.8807469031307846e-05
-2.1026053218520246e-05,1.9942319340771064e-05,-1.4491932233795524e-05,5.8606914535630494e-05
-2.3625352696399204e-05,2.2898213501321152e-05,-1.6651016267132945e-05,6.036634658812545e-05
-2.702398160181474e-05,2.7715732358046807e-05,-1.4830598047410604e-05,6.330548785626888e-05
-2.6437955966684967e-05,2.962223152280785e-05,-8.151362635544501e-06,6.728333391947672e-05
-2.2841833924758248e-05,2.5411172828171402e-05,-2.359772679483285e-06,6.951513205422089e-05
-1.932831401063595e-05,1.9768902348005213e-05,-2.8594794798664225e-07,6.544520147144794e-05
-2.283539106429089e-05,1.5339075616793707e-05,-4.7989460654207505e-06,6.09192211413756e-05
-2.9297663786564954e-05,1.1542210813786369e-05,-9.737530490383506e-06,5.704602153855376e-05
-3.018293500645086e-05,1.043841075443197e-05,-1.029147460940294e-05,5.27729898749385e-05
-2.701853372855112e-05,1.2170912668807432e-05,-8.996095857582986e-06,5.168758798390627e-05
-2.3631098883925006e-05,1.7348524124827236e-05,-5.841951860929839e-06,5.498926839209162e-05
-2.2358311980497092e-05,1.9928111214539967e-05,-5.408601737144636e-06,6.056018537492491e-05
-2.166984268114902e-05,1.6578233044128865e-05,-1.0283434676239267e-05,6.404098530765623e-05
-2.4765324269537814e-05,1.769135269569233e-05,-1.5256919141393155e-05,6.488850340247154e-05
-2.7595255232881755e-05,2.5248067686334252e-05,-1.5235395949275699e-05,6.254218897083774e-05
-2.7241461793892086e-05,2.681027035578154e-05,-1.2063826943631284e-05,6.313170888461173e-05
-2.6535682991379872e-05,2.088276596623473e-05,-8.8026545199682e-06,6.717685027979314e-05
-2.729397419898305e-05,2.0747786038555205e-05,-6.9459251790249255e-06,7.32566841179505e-05
-3.0468765544355847e-05,2.6473129764781334e-05,-4.091331902600359e-06,7.846855442039669e-05
-3.3992637327173725e-05,2.7382184271118604e-05,-1.8463186961525935e-06,7.892627763794735e-05
-3.490486415103078e-05,2.0245142877683975e-05,-3.65033770322043e-06,7.340087904594839e-05
-3.457562706898898e-05,1.78714999492513e-05,-6.978928468015511e-06,6.690969894407317e-05
-3.4170865546911955e-05,2.7631414923234843e-05,-7.99024746811483e-06,6.42317536403425e-05
-3.080545138800517e-05,3.6002220440423116e-05,-7.467013347195461e-06,6.471097731264308e-05
-2.645012500579469e-05,3.5296601708978415e-05,-8.464789971185382e-06,6.433524686144665e-05
-2.2509790142066777e-05,3.023942917934619e-05,-8.650576091895346e-06,6.1240149079822e-05
-2.1317082428140566e-05,2.4369946913793683e-05,-7.179502517828951e-06,6.157971074571833e-05
-2.51451347139664e-05,1.8726712369243614e-05,-6.933056283742189e-06,6.781495176255703e-05
-2.9041209927527234e-05,1.677692671364639e-05,-6.9833026827836875e-06,7.192695193225518e-05
-2.79675550700631e-05,1.4974304576753639e-05,-5.565116225625388e-06,6.866760668344796e-05
-2.184420736739412e-05,1.6655660147080198e-05,-3.586459797588759e-06,6.53159586363472e-05
-1.9932496797991917e-05,1.873987821454648e-05,5.846662816111348e-07,6.402833241736516e-05
-2.2946200260776095e-05,1.7921753169503063e-05,5.384724772738991e-06,6.534056592499837e-05
-2.5223645934602246e-05,1.8891798390541226e-05,5.429712473414838e-06,6.612049037357792e-05
-2.8384351026033983e-05,1.8666913092602044e-05,2.0679153749370016e-06,6.398745608748868e-05
-2.9754832212347537e-05,2.5314571757917292e-05,-1.950815686768692e-07,6.114925781730562e-05
-3.113438651780598e-05,3.077450310229324e-05,-1.7913502006194904e-06,6.218852649908513e-05
-3.303388803033158e-05,2.7516751288203523e-05,-3.882384589815047e-06,6.251637387322262e-05
-3.435548205743544e-05,2.0156754544586875e-05,-6.9036327658977825e-06,5.852342655998655e-05
-3.302870027255267e-05,1.68905589816859e-05,-9.03178624866996e-06,5.6736829719739035e-05
-3.0151912142173387e-05,1.8196209566667676e-05,-7.381498562608613e-06,5.8022116718348116e-05
-2.760498500720132e-05,1.96484452317236e-05,-4.332570370024769e-06,5.877674630028196e-05
-2.7621006665867753e-05,2.1011550416005775e-05,-5.068966856924817e-06,5.7269724493380636e-05
-2.7846903321915306e-05,2.1848703909199685e-05,-6.868081982247531e-06,5.5350330512737855e-05
-2.8649241357925348e-05,2.3475091438740492e-05,-8.231710125983227e-06,5.58352330699563e-05
-2.8539376216940582e-05,2.4127930373651907e-05,-7.973784704518039e-06,5.9467034589033574e-05
-2.5352786906296387e-05,2.2626529244007543e-05,-6.779217528674053e-06,6.252599996514618e-05
-2.154815592803061e-05,1.9359480575076304e-05,-7.160988843679661e-06,6.28231355221942e-05
-1.840287404775154e-05,2.0752091586473398e-05,-9.484142537985463e-06,6.225959805306047e-05
-1.7872614989755675e-05,1.9728766346815974e-05,-1.2026313015667256e-05,6.13161755609326e-05
-1.969597360584885e-05,1.3231201592134312e-05,-1.2162812708993442e-05,6.099078746046871e-05
-2.2369413272826932e-05,1.036621233652113e-05,-1.096542564482661e-05,6.253279570955783e-05
-2.373372444708366e-05,1.4780720448470674e-05,-1.1599610843404662e-05,6.481196032837033e-05
-2.3665294065722264e-05,1.9269788026576862e-05,-1.4324106814456172e-05,6.589644908672199e-05
-2.1139319869689643e-05,2.192398278566543e-05,-1.5390318367280997e-05,6.517820293083787e-05
-2.1928008209215477e-05,2.6152265490964055e-05,-1.3551254596677609e-05,6.287707219598815e-05
-2.492677595000714e-05,3.170045602018945e-05,-1.0078078048536554e-05,6.227770791156217e-05
-2.944792140624486e-05,3.2717831345507875e-05,-8.488567800668534e-06,6.164248043205589e-05
-3.1795654649613425e-05,3.241686863475479e-05,-8.931841875892133e-06,5.752043944085017e-05
-3.0499004424200393e-05,3.901677337125875e-05,-1.1761758287320845e-05,5.1839364459738135e-05
-2.7263238735031337e-05,4.7912912123138085e-05,-1.650608828640543e-05,4.84129814140033e-05
-2.17941815208178e-05,4.5300679630599916e-05,-2.1180781914154068e-05,4.949900176143274e-05
-2.379146644670982e-05,3.859002026729286e-05,-2.201825009251479e-05,4.868114774581045e-05
-2.9981451007188298e-05,3.854075839626603e-05,-1.7740114344633184e-05,4.6521672629751265e-05
-3.109417957603e-05,4.0425933548249304e-05,-1.193181196867954e-05,4.655840893974528e-05
-2.8540394851006567e-05,3.4166689147241414e-05,-7.765469490550458e-06,4.787768193637021e-05
-2.4638042305014096e-05,2.2922844436834566e-05,-6.211215804796666e-06,4.4259217247599736e-05
-2.4655690140207298e-05,2.2587208150071092e-05,-6.474728252214845e-06,4.110456939088181e-05
-2.855302045645658e-05,2.841015339072328e-05,-6.72133546686382e-06,3.801114871748723e-05
-3.108840246568434e-05,3.1624957046005875e-05,-7.609815838804934e-06,3.60709527740255e-05
-3.0247363611124456e-05,2.82611399597954e-05,-9.461690751777496e-06,3.830782225122675e-05
-2.5735080271260813e-05,2.6464276743354276e-05,-1.02329731817008e-05,3.9345042750937864e-05
-2.242414848296903e-05,2.762891017482616e-05,-1.142366454587318e-05,3.876690607285127e-05
-2.234845669590868e-05,2.813391256495379e-05,-1.3890073205402587e-05,4.077546691405587e-05
-2.2135789549793117e-05,2.3492955733672716e-05,-1.663656803430058e-05,4.874918158748187e-05
-2.1495201508514583e-05,1.7449594452045858e-05,-2.1017245671828277e-05,5.6255012168549e-05
-2.4053726519923657e-05,1.5325083950301632e-05,-2.483850585122127e-05,5.847592910868116e-05
-2.5659162929514423e-05,1.81145023816498e-05,-2.3435055481968448e-05,5.713358405046165e-05
-2.2216470824787393e-05,2.674878851394169e-05,-1.6794632756500505e-05,5.599403448286466e-05
-1.7061516700778157e-05,3.457896673353389e-05,-8.884725502866786e-06,5.297470124787651e-05
-1.3551029041991569e-05,3.087393270106986e-05,-5.182318091101479e-06,5.1550945499911904e-05
-1.3963007404527161e-05,2.346291694266256e-05,-8.277047527371906e-06,5.347862315829843e-05
-1.7455924535170197e-05,2.569322350609582e-05,-1.2484809303714428e-05,5.547723776544444e-05
-1.9846831492031924e-05,2.805317853926681e-05,-1.539897857583128e-05,5.38560125278309e-05
-2.0032353859278373e-05,2.8724767616949975e-05,-1.8438109691487625e-05,5.310845881467685e-05
-1.929867357830517e-05,3.3660260669421405e-05,-1.911190338432789e-05,5.547890395973809e-05
-2.2443104171543382e-05,3.3024465665221214e-05,-1.9725581296370365e-05,6.311203469522297e-05
-2.902300184359774e-05,2.4907991246436723e-05,-2.070710797852371e-05,7.105733675416559e-05
-2.842665162461344e-05,2.224661329819355e-05,-2.219309681095183e-05,6.709509034408256e-05
-2.6225643523503095e-05,2.4265842512249947e-05,-2.1093044779263437e-05,5.9755191614385694e-05
-2.6582452846923843e-05,2.4791832402115688e-05,-1.724190042295959e-05,5.768563278252259e-05
-2.9691616873606108e-05,2.0336101442808285e-05,-1.8707398339756764e-05,5.783629967481829e-05
-3.0981907912064344e-05,1.4969488802307751e-05,-2.0790201233467087e-05,5.747945397160947e-05
-2.9150804039090872e-05,1.2879901987616904e-05,-1.9551884179236367e-05,5.7162902521668e-05
-3.0511277145706117e-05,1.7267100702156313e-05,-1.9409044398344122e-05,5.81195781705901e-05
-2.937992576335091e-05,2.6344332582084462e-05,-1.789876478142105e-05,5.933080683462322e-05
-2.6050114684039727e-05,3.175575329805724e-05,-1.4915020074113272e-05,6.016721454216167e-05
-2.3697628421359695e-05,3.081007889704779e-05,-1.1193867067049723e-05,6.0037418734282255e-05
-2.760232746368274e-05,2.8241267500561662e-05,-8.378588972846046e-06,5.9483143559191376e-05
-3.2709911465644836e-05,2.7193436835659668e-05,-8.50354990689084e-06,5.8729478041641414e-05
-3.244564140914008e-05,2.6079205781570636e-05,-1.0321229638066143e-05,6.0406648117350414e-05
-2.9067254217807204e-05,2.430427230137866e-05,-1.1244368579355069e-05,6.438403215724975e-05
-2.8787510018446483e-05,2.3799953851266764e-05,-1.066886579792481e-05,6.670675793429837e-05
-3.154974911012687e-05,2.386988853686489e-05,-1.1881911632372066e-05,6.391252827597782e-05
-3.180499334121123e-05,2.5809002181631513e-05,-1.3488262993632816e-05,5.839624645886943e-05
-2.8671081963693723e-05,3.231417576898821e-05,-1.3713492990063969e-05,5.683441850123927e-05
-2.4490191208315082e-05,3.71019086742308e-05,-1.5176740816968959e-05,5.7259254390373826e-05
-2.4492952434229665e-05,3.41369814123027e-05,-1.603128475835547e-05,5.58342071599327e-05
-2.9742215701844543e-05,2.8584099709405564e-05,-1.3703137483389582e-05,5.201419480727054e-05
-3.525417560013011e-05,2.584782305348199e-05,-1.2033883649564814e-05,5.1429033192107454e-05
-3.6759567592525855e-05,2.4357414076803252e-05,-9.53063317865599e-06,5.4240932513494045e-05
-3.537076918291859e-05,2.0371560822241008e-05,-7.001601716183359e-06,5.665969001711346e-05
-3.38901809300296e-05,1.901279392768629e-05,-2.7205994683754398e-06,5.9277972468407825e-05
-3.4497588785598055e-05,2.4162520276149735e-05,3.7511704249482136e-06,6.069932715035975e-05
-3.519310848787427e-05,2.7015386876882985e-05,1.7816457784647355e-06,5.969686390017159e-05
-3.1552342989016324e-05,2.4579700038884766e-05,-5.391083050199086e-06,5.844578117830679e-05
-2.8254338758415543e-05,2.243413109681569e-05,-1.0246523743262514e-05,5.8699468354461715e-05
-3.0119017537799664e-05,2.4635988665977493e-05,-9.309675988333765e-06,6.414375093299896e-05
-2.9169113986426964e-05,2.8527967515401542e-05,-5.437716481537791e-06,7.11657339707017e-05
-2.7021394998882897e-05,2.746662539721001e-05,-4.747274942928925e-06,7.160386303439736e-05
-2.5479503165115602e-05,2.070174195978325e-05,-5.728263658966171e-06,6.895199476275593e-05
-2.2708311007590964e-05,1.3596359167422634e-05,-6.491446583822835e-06,6.751989712938666e-05
-1.9523251467035152e-05,8.941918167693075e-06,-6.673003099422203e-06,6.69464934617281e-05
-1.96777382370783e-05,1.272635654459009e-05,-8.04196679382585e-06,6.424190360121429e-05
-2.452079570502974e-05,2.1956835553282872e-05,-8.532613719580695e-06,6.050623778719455e-05
-2.925175976997707e-05,2.8570635549840517e-05,-5.52878191228956e-06,6.0037320508854464e-05
-3.0518232961185277e-05,2.9652652301592752e-05,6.477860665654589e-07,6.469342042692006e-05
-2.9238706702017225e-05,3.0157138098729774e-05,4.872004865319468e-06,6.935215060366318e-05
-2.8008782464894466e-05,2.6987632736563683e-05,4.566320512822131e-06,6.87439096509479e-05
-2.5852894395939074e-05,2.1591813492705114e-05,2.2988665477896575e-06,6.576448504347354e-05
-2.4546607164666057e-05,2.2488509785034694e-05,1.2048302551193046e-06,6.45215914119035e-05
-2.4663881049491465e-05,2.4327586288563907e-05,9.626692190067843e-07,6.628588016610593e-05
-2.4316463168361224e-05,2.4477136321365833e-05,8.081948408289463e-07,6.80860539432615e-05
-2.123177910107188e-05,2.4854101866367273e-05,1.7068319948521093e-06,6.721926911268383e-05
-1.859136318671517e-05,2.02613155124709e-05,3.277902351328521e-06,6.576754822162911e-05
-2.059240978269372e-05,1.3790746379527263e-05,4.7645362428738736e-06,6.748602754669264e-05
-2.4507398848072626e-05,1.4312259736470878e-05,3.184612978657242e-06,6.96885326760821e-05
-2.5870627723634243e-05,1.3148535799700767e-05,-1.6704956351532019e-06,6.75999399391003e-05
-2.2974629246164113e-05,9.770963515620679e-06,-5.883720405108761e-06,6.159942131489515e-05
-1.9273395082564093e-05,9.068792678590398e-06,-5.863708793185651e-06,5.785581379313953e-05
-1.8152351913158782e-05,8.783341399976052e-06,-5.57648991161841e-06,5.678370507666841e-05
-1.8109332813764922e-05,4.247619472153019e-06,-9.131914339377545e-06,5.779190905741416e-05
-1.5216048268484883e-05,1.7452655356464675e-06,-1.089964007405797e-05,6.252485763980076e-05
-1.0474703231011517e-05,1.2791357221431099e-05,-7.217797246994451e-06,6.561745249200612e-05
-1.2065603186783846e-05,3.197068508598022e-05,-3.6993578760302626e-06,6.251755257835612e-05
-2.0726352886413224e-05,3.8847894757054746e-05,-2.004479711104068e-06,5.810583388665691e-05
-2.639176273078192e-05,3.447198832873255e-05,-2.7636842787615024e-06,5.632617830997333e-05
-2.217126893810928e-05,3.164835652569309e-05,-4.129071839997778e-06,5.4351585276890546e-05
-1.73420939972857e-05,2.8305244995863177e-05,-5.112729013490025e-06,5.0417642341926694e-05
-1.8879161871154793e-05,2.6448367862030864e-05,-6.19798265688587e-06,5.0105452828574926e-05
-2.1221656425041147e-05,2.580345062597189e-05,-6.672542895103106e-06,5.461664477479644e-05
-2.0136085367994383e-05,2.5357827325933613e-05,-5.4187330533750355e-06,5.789842180092819e-05
-1.935805266839452e-05,2.307489194208756e-05,-4.3879886106878985e-06,5.5442633311031386e-05
-2.0537214368232526e-05,2.1871954231755808e-05,-9.328820851806086e-06,4.954566975357011e-05
-1.932410305016674e-05,2.3264294213731773e-05,-1.674531631579157e-05,4.680458368966356e-05
-1.7616521290619858e-05,2.4298447897308506e-05,-2.0165327441645786e-05,4.741564771393314e-05
-1.8710778022068553e-05,2.3672313545830548e-05,-1.7790871424949728e-05,5.072144267614931e-05
-2.2752001314074732e-05,1.935243017214816e-05,-1.519169472885551e-05,5.368665006244555e-05
-2.3802083887858316e-05,1.676125975791365e-05,-1.5805517250555567e-05,5.3891242714598775e-05
-1.9914388758479618e-05,1.9455565052339807e-05,-1.8203401850769296e-05,5.192587195779197e-05
-1.8439319319440983e-05,2.2046917365514673e-05,-1.9095623429166153e-05,5.210793824517168e-05
-2.367661363678053e-05,2.0753235730808228e-05,-1.697778316156473e-05,5.2520237659337e-05
-2.820592635544017e-05,2.1233217921690084e-05,-1.7116057279054075e-05,5.006881838198751e-05
-2.866636532417033e-05,2.269253491249401e-05,-2.1500511138583533e-05,4.914477904094383e-05
-2.9179625926190056e-05,2.2094596715760417e-05,-2.199023583671078e-05,5.083340874989517e-05
-2.714583752094768e-05,2.3462049284717068e-05,-1.768965921655763e-05,5.3400824981508777e-05
-2.5054821890080348e-05,2.7271998987998813e-05,-1.6325580872944556e-05,5.6781525927362964e-05
-2.556136496423278e-05,3.0904862796887755e-05,-1.769785740179941e-05,6.277280044741929e-05
-2.2991500372882e-05,2.7614252758212388e-05,-1.5664982129237615e-05,6.595029844902456e-05
-1.8183769498136826e-05,1.832719863159582e-05,-8.34738057164941e-06,6.47921406198293e-05
-1.6448902897536755e-05,1.7286563888774253e-05,-4.75588012704975e-06,6.43403036519885e-05
-2.120051249221433e-05,2.255757681268733e-05,-9.308053449785803e-06,6.695125193800777e-05
-2.6785392037709244e-05,2.5894682039506733e-05,-1.5521656678174622e-05,7.182996341725811e-05
-2.7849437174154446e-05,2.6118888854398392e-05,-1.7077933080145158e-05,7.509562419727445e-05
-2.660072459548246e-05,2.8099997507524677e-05,-1.3426032637653407e-05,7.553493196610361e-05
-2.5727869797265157e-05,3.3658358006505296e-05,-8.788204468146432e-06,7.344198093051091e-05
-2.729074731178116e-05,3.481004387140274e-05,-5.813254119857447e-06,6.984963692957535e-05
-3.108518649241887e-05,2.9110336981830187e-05,-4.855451152252499e-06,6.436875264625996e-05
-3.4210883313789964e-05,2.0620860595954582e-05,-4.866421932092635e-06,6.0942256823182106e-05
-3.384764931979589e-05,1.4848315913695842e-05,-5.3570915952150244e-06,5.860352757736109e-05
-3.359798574820161e-05,1.2780397810274735e-05,-6.605437647522194e-06,5.9038651670562103e-05
-3.44046056852676e-05,1.2993715245102067e-05,-8.114817319437861e-06,6.220470095286146e-05
-3.577655297704041e-05,1.4997501239122357e-05,-9.372957720188424e-06,6.218895578058437e-05
-3.608103725127876e-05,1.8477421690477058e-05,-1.2576134395203553e-05,5.770758070866577e-05
-3.436795304878615e-05,2.2744163288734853e-05,-1.7350195776089095e-05,5.364925891626626e-05
-3.115846266155131e-05,2.598574610601645e-05,-1.87958048627479e-05,5.378730202210136e-05
-2.8091091735404916e-05,2.435920396237634e-05,-1.8087641365127638e-05,5.2438259444897994e-05
-2.7585458155954257e-05,2.0348858015495352e-05,-1.9588802388170734e-05,4.970183363184333e-05
-2.947360189864412e-05,1.7596852558199316e-05,-2.286980816279538e-05,5.003705155104399e-05
-3.1101040804060176e-05,1.9758581402129494e-05,-2.349088572373148e-05,5.076700108475052e-05
-3.134782309643924e-05,2.876251528505236e-05,-1.9057324607274495e-05,4.694224844570272e-05
-3.365453812875785e-05,3.539930548868142e-05,-1.3424101780401543e-05,4.389307287055999e-05
-3.544978972058743e-05,3.27104062307626e-05,-1.2938074178237002e-05,4.257424734532833e-05
-3.5711913369596004e-05,3.0571321985917166e-05,-1.509148205514066e-05,4.019457628601231e-05
-3.5509765439201146e-05,3.545065919752233e-05,-1.7707785445963964e-05,3.743729757843539e-05
-3.5869739804184064e-05,3.7154200981603935e-05,-1.8202417777501978e-05,4.015829836134799e-05
-3.679561268654652e-05,3.137667590635829e-05,-1.6401379980379716e-05,4.414976137923077e-05
-3.590081541915424e-05,2.844543632818386e-05,-1.3769468750979286e-05,4.4722037273459136e-05
-3.501188984955661e-05,2.976616997329984e-05,-8.649261872051284e-06,4.5367254642769694e-05
-3.2553889468545094e-05,3.095268766628578e-05,-4.381805865705246e-06,4.430291664903052e-05
-2.9569133403128944e-05,3.241849844926037e-05,-2.7478320134832757e-06,4.393718336359598e-05
-2.671516267582774e-05,3.183669468853623e-05,-7.699813977524173e-06,4.742099190480076e-05
-2.6997309760190547e-05,3.0150080419844016e-05,-1.1702246411005035e-05,5.2015893743373454e-05
-2.9170858397264965e-05,2.527949800423812e-05,-1.2131817129557021e-05,5.144135866430588e-05
-2.9071647077216767e-05,2.016767939494457e-05,-1.2171866728749592e-05,4.8107351176440716e-05
-2.7395579309086315e-05,1.7996815586229786e-05,-1.3358971955312882e-05,4.6846820623613894e-05
-2.6573261493467726e-05,1.8194008589489385e-05,-1.616993722564075e-05,4.7780817112652585e-05
-2.9812648790539242e-05,2.366576336498838e-05,-1.839550350268837e-05,5.0487804401200265e-05
-3.38852551067248e-05,3.171073331031948e-05,-1.9334853277541697e-05,5.3207360906526446e-05
-3.5651708458317444e-05,3.3426040317863226e-05,-1.6623545889160596e-05,5.4074764193501323e-05
-3.5520562960300595e-05,2.8021724574500695e-05,-1.3232224773673806e-05,5.413690087152645e-05
-3.425992326810956e-05,2.394430157437455e-05,-1.1034286217181943e-05,5.514250005944632e-05
-3.0026922104298137e-05,2.369977482885588e-05,-9.128619240073022e-06,5.6610224419273436e-05
-2.5806319172261283e-05,2.4249620764749125e-05,-6.467561433964875e-06,5.590433647739701e-05
-2.2371508748619817e-05,2.225291245849803e-05,-4.914976670988835e-06,5.237113873590715e-05
-1.9160384908900596e-05,2.3094962671166286e-05,-5.14763041792321e-06,5.026403960073367e-05
-1.84545642696321e-05,2.6927358703687787e-05,-6.275437044678256e-06,5.343560769688338e-05
-2.05113465199247e-05,2.6723786504589953e-05,-5.602799774351297e-06,5.7026176364161074e-05
-1.9744673409149982e-05,2.7077310733147897e-05,-4.124537554162089e-06,5.8363537391414866e-05
-1.65077653946355e-05,3.388795812497847e-05,-1.373468762722041e-06,6.0369759012246504e-05
-1.4841577467450406e-05,4.0153125155484304e-05,-1.314079099756782e-06,6.0169688367750496e-05
-1.5856518075452186e-05,3.982619818998501e-05,-4.287773208488943e-06,5.857870928593911e-05
-1.6609978047199547e-05,3.527944136294536e-05,-3.8750031308154576e-06,5.7448127336101606e-05
-1.736398735374678e-05,2.699104334169533e-05,-3.0328067168738926e-06,5.739531843573786e-05
-1.7544183720019646e-05,1.905071985675022e-05,-2.0368070181575604e-06,5.844210318173282e-05
-1.4638536413258407e-05,1.9532672013156116e-05,-1.7712462749841507e-06,6.0560971178347245e-05
-1.7823280359152704e-05,2.322027285117656e-05,-2.6329189495299943e-06,6.074802149669267e-05
-2.5467690647928976e-05,2.1958892830298282e-05,-1.944241375895217e-06,5.758808765676804e-05
-2.8255188226467e-05,2.360056714678649e-05,-3.581777718864032e-06,5.4368600103771314e-05
-2.7462545403977856e-05,2.790605321933981e-05,-6.089392172725638e-06,5.47181953152176e-05
-2.591273187135812e-05,2.9315035135368817e-05,-7.795593774062581e-06,5.685221549356356e-05
-2.3089678506948985e-05,2.998378113261424e-05,-9.398601832799613e-06,5.839901132276282e-05
-1.9805500414804555e-05,3.169303818140179e-05,-1.0329566066502593e-05,5.9885245718760416e-05
-1.8358625311520882e-05,2.9966889997012913e-05,-1.2127569789299741e-05,6.126863445388153e-05
-1.8446507965563796e-05,2.1626552552334033e-05,-1.3915800082031637e-05,6.301589746726677e-05
-1.7568179828231223e-05,1.638043613638729e-05,-1.4599515452573542e-05,5.999462882755324e-05
-1.7669246517471038e-05,1.9147390048601665e-05,-1.2855577551817987e-05,5.641359894070774e-05
-1.747314126987476e-05,2.5367313355673105e-05,-1.0430283509776928e-05,5.910791514907032e-05
-1.7749071048456244e-05,2.6126293960260227e-05,-8.019659617275465e-06,6.358393147820607e-05
-1.835537113947794e-05,1.9048578906222247e-05,-7.826971341273747e-06,6.167092942632735e-05
-1.8146516595152207e-05,1.2327346667007077e-05,-9.665349352871999e-06,5.42178750038147e-05
-1.834496288211085e-05,1.0512146218388807e-05,-1.0102438864123542e-05,4.9950067477766424e-05
-1.8735445337370038e-05,9.036446499521844e-06,-8.78242735780077e-06,5.4476051445817575e-05
-1.8049120626528747e-05,1.3290034985402599e-05,-4.523709321802016e-06,6.189206760609522e-05
-2.0025301637360826e-05,2.1065430701128207e-05,4.2077502371284936e-07,6.199753988767043e-05
-2.467370177328121e-05,2.3437556592398323e-05,-1.641568701415963e-06,5.78616454731673e-05
-2.4939978175098076e-05,2.2183661712915637e-05,-3.358487902005436e-06,5.8224450185662135e-05
-2.41373654716881e-05,2.0891129679512233e-05,7.01544536241272e-07,6.201570795383304e-05
-2.4481980290147476e-05,1.8490070942789316e-05,-4.5825419192624395e-07,6.422386650228873e-05
-2.4529466827516444e-05,1.942178641911596e-05,-5.338808023225283e-06,6.32139781373553e-05
-2.395187402726151e-05,2.4979599402286112e-05,-8.51317872729851e-06,6.278061482589692e-05
-2.4296990886796266e-05,2.1960839148960076e-05,-1.0297727385477629e-05,6.306517025223002e-05
-2.4606786610092968e-05,2.039126047748141e-05,-8.647979484521784e-06,6.0898724768776447e-05
-2.161610063922126e-05,2.745575511653442e-05,-7.190276846813504e-06,5.7990382629213855e-05
-1.980323031602893e-05,3.185659443261102e-05,-9.578840035828762e-06,5.783241431345232e-05
-2.2083058865973726e-05,2.7325300834490918e-05,-1.3247459719423205e-05,5.793550735688768e-05
-2.483348362147808e-05,2.222513285232708e-05,-1.308572154812282e-05,5.865866842214018e-05
-2.8024644052493386e-05,2.2701997295371257e-05,-1.1922074918402359e-05,5.862279431312345e-05
-3.123525675619021e-05,2.9916191124357283e-05,-1.3491783647623379e-05,5.5731819884385914e-05
-3.087535878876224e-05,3.419033964746632e-05,-1.3688947547052521e-05,5.2776551456190646e-05
-2.819351720972918e-05,2.771373328869231e-05,-1.201431587105617e-05,5.073610373074189e-05
-2.6927515136776492e-05,1.780943784979172e-05,-9.656938345870003e-06,5.60111366212368e-05
-2.622389183670748e-05,1.365112439088989e-05,-8.99587212188635e-06,6.545544601976871e-05
-2.5998495402745903e-05,1.37727593028103e-05,-1.0946957445412409e-05,6.864986062282696e-05
-2.6981180781149305e-05,1.234906812896952e-05,-1.3293951269588433e-05,6.423296144930646e-05
-2.782555020530708e-05,1.1840732440759894e-05,-1.4726481822435744e-05,6.0231246607145295e-05
-2.5721721613081172e-05,1.3260638297651894e-05,-1.740553489071317e-05,5.945622979197651e-05
-2.329385097254999e-05,1.6428963135695085e-05,-1.817135671444703e-05,5.935615990892984e-05
-2.4335526177310385e-05,2.3678123397985473e-05,-1.2549817256513052e-05,5.772044460172765e-05
-2.758644041023217e-05,3.290085442131385e-05,-3.807832854363369e-06,5.581175719271414e-05
-2.939460682682693e-05,3.42747698596213e-05,1.054932909028139e-06,5.500381666934118e-05
-3.0293756935861893e-05,3.2216707040788606e-05,2.088774863295839e-06,5.780768333352171e-05
-3.415522587602027e-05,3.257439675508067e-05,4.760786396218464e-06,6.126163498265669e-05
-3.6630637623602524e-05,2.945879168692045e-05,5.638803941110382e-06,6.0535116062965244e-05
-3.3127365895779803e-05,2.244513416371774e-05,1.7154270608443767e-06,6.345648580463603e-05
-2.8349162676022388e-05,2.6209854695480317e-05,-3.573147751012584e-06,7.127950811991468e-05
-3.083405317738652e-05,3.936581197194755e-05,-8.005167728697415e-06,7.204603753052652e-05
-3.3905198506545275e-05,4.1530503949616104e-05,-1.1491709301481023e-05,6.839453999418765e-05
-3.4758624678943306e-05,3.273603579145856e-05,-1.052462903317064e-05,6.920359010109678e-05
-3.3063119190046564e-05,2.752954969764687e-05,-6.88788759362069e-06,7.251989882206544e-05
-2.7891872377949767e-05,2.7539823349798098e-05,-5.25741006640601e-06,7.189968164311722e-05
-2.6218516723020002e-05,2.820761983457487e-05,-4.324841484049102e-06,6.595897139050066e-05
-2.683457569219172e-05,2.596430385892745e-05,-4.244231149641564e-06,6.381780258379877e-05
-2.7667821996146813e-05,2.6390671337139793e-05,-4.9572722673474345e-06,6.707780266879126e-05
-2.589331597846467e-05,2.8257201847736724e-05,-1.0043997463071719e-05,7.143434777390212e-05
-2.4640847186674364e-05,2.8452719561755657e-05,-1.5600258848280646e-05,6.993876013439149e-05
-2.640199636516627e-05,3.1142910302150995e-05,-1.7073365597752854e-05,6.412138463929296e-05
-2.9968348826514557e-05,3.551495319698006e-05,-1.730379881337285e-05,6.031841621734202e-05
-3.1015868444228545e-05,3.594623922253959e-05,-1.8939843357657082e-05,6.028272764524445e-05
-2.9031503800069913e-05,3.408140764804557e-05,-2.023374690907076e-05,6.241830124054104e-05
-2.7920279535464942e-05,3.318068775115535e-05,-1.901394898595754e-05,6.564060458913445e-05
-2.8738648325088434e-05,2.9553011700045317e-05,-1.8927978089777753e-05,6.920783926034346e-05
-3.115172512480058e-05,2.5431041649426334e-05,-2.1902202206547372e-05,6.953989213798195e-05
-3.153532088617794e-05,2.4658807888044976e-05,-2.425039747322444e-05,6.927978392923251e-05
-2.8439380912459455e-05,2.4350601961486973e-05,-2.209874764957931e-05,7.30942701920867e-05
-2.4622009732411243e-05,2.35467086895369e-05,-1.9441384210949764e-05,7.660753180971369e-05
-2.317457074241247e-05,2.5179764634231105e-05,-1.9062597857555375e-05,7.182956323958933e-05
-2.5329880372737534e-05,3.122707494185306e-05,-2.0331166524556465e-05,6.482767639681697e-05
-2.904903158196248e-05,3.641471630544402e-05,-1.9783525203820318e-05,6.357005622703582e-05
-3.2169860787689686e-05,3.336779627716169e-05,-1.6171863535419106e-05,6.493190448964015e-05
-3.311100954306312e-05,3.003882011398673e-05,-1.0847430530702695e-05,6.423063314286992e-05
-3.116614243481308e-05,2.7877806132892147e-05,-1.003235865937313e-05,6.277825741562992e-05
-2.780982686090283e-05,2.3244625481311232e-05,-1.3018178833590355e-05,6.535395368700847e-05
-2.4467293769703247e-05,2.0760766346938908e-05,-1.5925263141980395e-05,6.921670137671754e-05
-2.1429979824461043e-05,2.044394386757631e-05,-1.703103225736413e-05,6.95857816026546e-05
-1.5901961887720972e-05,1.836788942455314e-05,-1.3496706742444076e-05,6.787708116462454e-05
-1.3532657249015756e-05,2.013092853303533e-05,-9.384400982526131e-06,6.637783371843398e-05
-1.8184906366514042e-05,2.471761945344042e-05,-8.200129741453566e-06,6.471763481386006e-05
-2.6398874979349785e-05,2.824638613674324e-05,-1.1449353223724756e-05,6.286477582762018e-05
-2.9449875000864267e-05,2.2840673409518786e-05,-1.610263279872015e-05,6.138382741482928e-05
-2.8855478376499377e-05,1.1361127690179273e-05,-1.5698427887400612e-05,6.26888795522973e-05
-2.624950502649881e-05,3.836255018541124e-06,-9.246090485248715e-06,6.433833186747506e-05
-2.3645621695322916e-05,5.0968455980182625e-06,-4.8939364205580205e-06,6.177103205118328e-05
-2.392059104749933e-05,8.019727829378098e-06,-5.235049684415571e-06,5.9965554100926965e-05
-2.494255022611469e-05,1.018535749608418e-05,-8.142388651322108e-06,5.971949940430932e-05
-2.4210930860135704e-05,1.4651530364062637e-05,-9.342833436676301e-06,5.932816566200927e-05
-2.24784580495907e-05,1.7774094885680825e-05,-6.7226524151919875e-06,5.736273305956274e-05
-2.263059104734566e-05,2.0040844901814125e-05,-4.953944880980998e-06,5.530844646273181e-05
-2.4445276721962728e-05,2.2362364688888192e-05,-5.7143374760926235e-06,5.409608638728969e-05
-2.801744449243415e-05,2.5637320504756644e-05,-4.960365004080813e-06,5.183848043088801e-05
-2.8710552214761265e-05,2.536421743570827e-05,-2.5351353087899042e-06,4.8543592129135504e-05
-2.6073117624036968e-05,2.355697324674111e-05,-3.784374939641566e-06,4.295590770198032e-05
-2.5231931431335397e-05,2.5319159249193035e-05,-7.376516350632301e-06,3.889712752425112e-05
-2.806001612043474e-05,2.999039315909613e-05,-7.049912710499484e-06,4.036217796965502e-05
-2.6755469662020914e-05,2.985375431308057e-05,-7.4407870442883e-07,4.4733023969456553e-05
-2.4502356609445997e-05,2.4109565856633708e-05,2.1905916582909413e-06,4.822850678465329e-05
-2.4631992346257903e-05,1.6448004316771403e-05,-1.3956666577996657e-07,4.7173343773465604e-05
-2.561439214332495e-05,1.3371472050494049e-05,1.4146542071102886e-07,4.745486148749478e-05
-2.479744580341503e-05,1.5355721188825555e-05,5.036086463405809e-07,4.753832399728708e-05
-2.454944115015678e-05,2.416776624158956e-05,-6.6991692619922105e-06,4.682902726926841e-05
-2.342515108466614e-05,3.1296971428673714e-05,-1.273365705856122e-05,5.190105002839118e-05
-1.94778258446604e-05,2.9144586733309552e-05,-1.2865776625403669e-05,5.657994552166201e-05
-1.73182397702476e-05,2.7222738935961388e-05,-1.6822570614749566e-05,5.746781243942678e-05
-1.5623236322426237e-05,2.4125227355398238e-05,-1.8595521396491677e-05,5.6048047554213554e-05
-1.687878648226615e-05,1.7934200513991527e-05,-1.6842419427121058e-05,5.433200203697197e-05
-2.1605772417387925e-05,1.1880546480824705e-05,-1.5373792848549783e-05,5.15153915330302e-05
-2.525141098885797e-05,1.1113155778730288e-05,-1.2924287148052827e-05,5.089405385660939e-05
-2.535860585339833e-05,1.5646895917598158e-05,-1.1056356925109867e-05,5.1839739171555266e-05
-2.3869690267019905e-05,1.4524360267387237e-05,-1.1878413715749048e-05,5.397009590524249e-05
-2.4359780582017265e-05,9.242935448128264e-06,-1.576436079631094e-05,5.543603765545413e-05
-2.5817247660597786e-05,4.954535143042449e-06,-1.9146626073052175e-05,5.624400364467874e-05
-2.4768401999608614e-05,4.9601680984778795e-06,-1.8286504200659692e-05,5.577841147896834e-05
-2.275059523526579e-05,8.502936907461844e-06,-1.3642653357237577e-05,5.3669384215027094e-05
-1.954650360858068e-05,1.2100732419639826e-05,-1.128187432186678e-05,5.238867743173614e-05
-1.8863209334085695e-05,1.6238091120612808e-05,-1.17395229608519e-05,5.592242814600468e-05
-2.1433012079796754e-05,2.1903881133766845e-05,-1.255565894098254e-05,6.341819243971258e-05
-2.3353812139248475e-05,2.575113467173651e-05,-1.2628587683138903e-05,6.755891809007153e-05
-2.322586988157127e-05,2.6175755920121446e-05,-1.206608703796519e-05,6.594591832254082e-05
-2.3522066840087064e-05,2.8092841603211127e-05,-1.0879330147872679e-05,5.84849803999532e-05
-2.5618914150982164e-05,2.867812872864306e-05,-1.0603836017253343e-05,5.236345896264538e-05
-2.891929580073338e-05,2.6859734134632163e-05,-1.2302873983571772e-05,5.187687202123925e-05
-3.172356082359329e-05,2.501277776900679e-05,-1.2504871847340837e-05,5.4973283113213256e-05
-3.098899105680175e-05,2.1597908926196396e-05,-1.010925006994512e-05,5.745551970903762e-05
-2.8794056561309844e-05,2.0056091670994647e-05,-6.935390047146939e-06,5.884374331799336e-05
-2.9083530534990132e-05,2.0406077965162694e-05,-3.2255104542855406e-06,6.010399738443084e-05
-3.118430686299689e-05,1.8361755792284384e-05,1.8402741943646106e-06,6.226697587408125e-05
-3.325887519167736e-05,1.624560172786005e-05,3.6371141050040023e-06,6.114664574852213e-05
-3.355734588694759e-05,1.42844664878794e-05,-1.2942921330250101e-06,5.878105730516836e-05
-3.4039119782391936e-05,1.752283969835844e-05,-8.553309271519538e-06,5.719002365367487e-05
-3.5948334698332474e-05,2.323381522728596e-05,-1.220361446030438e-05,5.701149348169565e-05
-3.23338717862498e-05,3.0003635401953943e-05,-1.109819822886493e-05,5.7409564760746434e-05
-2.931700691988226e-05,3.770198964048177e-05,-8.80338757269783e-06,5.567077823798172e-05
-2.8931983251823112e-05,3.9401158574037254e-05,-6.8121876211080234e-06,5.25447067047935e-05
-2.731958193180617e-05,3.1016745197121054e-05,-7.218599421321414e-06,4.901289867120795e-05
-2.7668560505844653e-05,2.32243965001544e-05,-1.064191928890068e-05,4.945531691191718e-05
-2.8665035642916337e-05,2.558685082476586e-05,-1.4067967640585266e-05,5.193351535126567e-05
-2.9521663236664608e-05,3.269435546826571e-05,-1.3664598554896656e-05,5.564302045968361e-05
-3.1514904549112543e-05,3.5250817745691165e-05,-1.04714108601911e-05,5.777343176305294e-05
-3.137109524686821e-05,3.31212067976594e-05,-8.273040293715894e-06,5.9642785345204175e-05
-2.908677197410725e-05,3.066216595470905e-05,-9.176898856821936e-06,6.326834409264848e-05
-2.5545399694237858e-05,3.0660914489999413e-05,-1.026357313094195e-05,6.566255615325645e-05
-2.371040864090901e-05,3.2300631573889405e-05,-8.057994818955194e-06,6.747193401679397e-05
-2.4804910935927182e-05,3.096066939178854e-05,-5.150966444489313e-06,6.793678039684892e-05
-2.5614415790187195e-05,2.66229562839726e-05,-2.4449261672998546e-06,6.308199226623401e-05
-2.5946752430172637e-05,2.270761615363881e-05,-1.6587939626333537e-06,5.605867045233026e-05
-2.6491694370633923e-05,1.9657521988847293e-05,-1.6939118268055608e-06,5.255319774732925e-05
-2.777704139589332e-05,1.885412166302558e-05,-1.740818447615311e-06,5.037674054619856e-05
-2.8798982384614646e-05,2.6409699785290286e-05,-1.807098328754364e-06,4.91540486109443e-05
-2.8781323635485023e-05,3.4240027162013575e-05,-1.319347234129964e-06,4.9463880714029074e-05
-2.7591955586103722e-05,3.385210584383458e-05,-2.8183317226648796e-06,5.1240243919892237e-05
-2.5681170882307924e-05,2.6598889235174283e-05,-7.78196317696711e-06,5.493645221577026e-05
-2.4651319108670577e-05,2.1482484953594394e-05,-1.2381221495161299e-05,5.5518437875434756e-05
-2.4071992811514065e-05,2.397753814875614e-05,-1.4948353964427952e-05,5.154566315468401e-05
-2.075954580504913e-05,3.3285588870057836e-05,-1.3520022548618726e-05,5.1484010327840224e-05
-1.9685978259076364e-05,3.726212526089512e-05,-9.963813681679312e-06,5.465136928251013e-05
-2.285524533363059e-05,2.9905646442784928e-05,-1.0194480637437664e-05,5.872251495020464e-05
-2.5561750589986332e-05,2.1598139937850647e-05,-1.3090407264826354e-05,6.301443499978632e-05
-2.289912117703352e-05,1.665716990828514e-05,-1.4698026461701375e-05,6.663727981504053e-05
-1.77538713614922e-05,1.426315247954335e-05,-1.2814810361305717e-05,6.811877392465249e-05
-1.945516669366043e-05,1.5055088624649215e-05,-9.724540177558083e-06,6.670172297162935e-05
-2.5800289222388528e-05,2.4023322112043388e-05,-6.710318302793894e-06,6.652458250755444e-05
-2.991174733324442e-05,3.1101968488655984e-05,-5.227244855632307e-06,6.807462341384962e-05
-3.0953673558542505e-05,3.138732063234784e-05,-3.92212768929312e-06,6.886258779559284e-05
-2.95316112897126e-05,3.0174414860084653e-05,-2.0201234747219132e-06,6.805243901908398e-05
-2.874616620829329e-05,2.4182068955269642e-05,-1.2134333928770502e-06,6.408114859368652e-05
-2.850037344614975e-05,2.169632352888584e-05,-3.3150718081742525e-07,5.682917617377825e-05
-2.9148219255148433e-05,2.901509105868172e-05,1.6512117326783482e-06,5.231520481174812e-05
-2.903463609982282e-05,3.9234113501152024e-05,2.389559767834726e-06,5.1513041398720816e-05
-2.7896418032469228e-05,4.1068746213568375e-05,-2.0142401808698196e-06,5.153666279511526e-05
-2.7726349799195305e-05,3.731685865204781e-05,-1.0039606422651559e-05,5.223168773227371e-05
-2.8185218980070204e-05,3.325669968035072e-05,-1.688801967247855e-05,5.3785915952175856e-05
-2.8196835046401247e-05,2.967137515952345e-05,-1.7913591364049353e-05,5.50533841305878e-05
-2.515726191631984e-05,2.8921307603013702e-05,-1.3374087757256348e-05,5.568811684497632e-05
-2.417902578599751e-05,3.187631591572426e-05,-7.434510735038202e-06,5.424005939858034e-05
-2.69130014203256e-05,3.2394560548709705e-05,-3.223445446565165e-06,5.2327352022984996e-05
-2.953999319288414e-05,2.7090227376902476e-05,-3.22397363561322e-06,5.292004789225757e-05
-2.7906049581361003e-05,2.074408439511899e-05,-6.010818651702721e-06,5.400121517595835e-05
-2.4090948500088416e-05,1.4734936485183425e-05,-1.0777592251542956e-05,5.666276047122665e-05
-2.07606590265641e-05,1.1052768059016671e-05,-1.3640250472235493e-05,5.552686343435198e-05
-1.7447237041778862e-05,8.282455382868648e-06,-1.3880099686502945e-05,5.1232476835139096e-05
-1.7731952539179474e-05,1.2755671377817634e-05,-1.628528661967721e-05,5.203156979405321e-05
-2.117952135449741e-05,1.8201139027951285e-05,-1.7981739802053198e-05,5.1496917876647785e-05
-2.4590302928118035e-05,1.367001277685631e-05,-1.7116692106355913e-05,5.0725389883155e-05
-2.7661390049615875e-05,1.3378987205214798e-05,-1.5846970200072974e-05,5.072411659057252e-05
-2.8112617656006478e-05,2.166857484553475e-05,-1.459548730053939e-05,5.0403843488311395e-05
-2.416175266262144e-05,2.6102039555553347e-05,-1.3001740626350511e-05,5.0141516112489626e-05
-2.0412497178767808e-05,2.2375135813490488e-05,-1.5461893781321123e-05,4.7507794079137966e-05
-1.9177114154445007e-05,1.933802559506148e-05,-1.937013257702347e-05,4.636421363102272e-05
-1.920222166518215e-05,2.17401629925007e-05,-2.0861691155005246e-05,4.9238002247875556e-05
-1.7724925783113576e-05,2.164780926250387e-05,-1.9673010683618486e-05,5.075292210676707e-05
-1.7859256331576034e-05,1.911560866574291e-05,-1.614934990357142e-05,5.008211519452743e-05
-1.8167374946642667e-05,1.83158517756965e-05,-1.089402303477982e-05,5.006784340366721e-05
-1.7721959011396393e-05,2.0533105271169916e-05,-7.096623903635191e-06,4.983635153621435e-05
-1.965909541468136e-05,2.4479235435137525e-05,-1.0432930139359087e-05,4.9239893996855244e-05
-2.4888146072044037e-05,2.690843029995449e-05,-1.5958998119458556e-05,4.827717202715576e-05
-3.131852645310573e-05,2.599712388473563e-05,-1.838720345403999e-05,4.6385925088543445e-05
-3.4232009056722745e-05,2.1852827558177523e-05,-1.844629514380358e-05,4.3944102799287066e-05
-3.31966184603516e-05,1.780074671842158e-05,-1.9335318938829005e-05,4.250142228556797e-05
-2.7883552320417948e-05,1.452711603633361e-05,-1.8259046555613168e-05,4.1630864870967343e-05
-2.2133668608148582e-05,9.069543011719361e-06,-1.3891913113184273e-05,4.105396874365397e-05
-1.925318247231189e-05,3.837896656477824e-06,-1.1338006515870802e-05,4.0867049392545596e-05
-1.803811392164789e-05,3.5941875466960482e-06,-1.2599891306308564e-05,4.1224298911402e-05
-1.7634234609431587e-05,9.264414075005334e-06,-1.3296035831444897e-05,4.2128107452299446e-05
-1.8401236957288347e-05,1.4075050785322674e-05,-1.0809535524458624e-05,4.4510597945190966e-05
-1.906872603285592e-05,1.5828010873519816e-05,-6.747111910954118e-06,4.8523350415052846e-05
-2.0762938220286742e-05,1.585675636306405e-05,-4.709931090474129e-06,5.178550418349914e-05
-2.0241219317540526e-05,1.3222798770584632e-05,-4.387136414152337e-06,5.256429358269088e-05
-1.9186945792171173e-05,1.3260827472549863e-05,-6.920894520590082e-06,5.339140261639841e-05
-2.048240821750369e-05,1.7170346836792305e-05,-6.956392098800279e-06,5.1711947889998555e-05
-2.2882635676069185e-05,2.1609703253488988e-05,-4.5936735659779515e-06,4.9270201998297125e-05
-2.7580133973970078e-05,2.3072163457982242e-05,-5.165838501852704e-06,5.228994268691167e-05
-3.176695099682547e-05,2.336811667191796e-05,-7.094062766554998e-06,5.869976303074509e-05
-3.237611599615775e-05,2.40334338741377e-05,-1.2399149454722647e-05,6.3802843214944e-05
-3.130018012598157e-05,2.3488821170758456e-05,-1.6562013115617447e-05,6.508856313303113e-05
-2.867447074095253e-05,2.2687843738822266e-05,-1.8363047274760902e-05,6.334715726552531e-05
-2.7843640054925345e-05,2.16857351915678e-05,-1.6972702724160627e-05,6.501776078948751e-05
-2.7134758056490682e-05,2.2241465558181517e-05,-1.4915975043550134e-05,6.853949889773503e-05
-2.497680725355167e-05,2.7973699616268277e-05,-1.5530158634646796e-05,6.816734821768478e-05
-2.523330840631388e-05,3.422209192649461e-05,-1.718997191346716e-05,6.762122211512178e-05
-2.8101043426431715e-05,3.1269089959096164e-05,-1.5191022612270899e-05,7.234903750941157e-05
-2.902866071963217e-05,2.4060542273218744e-05,-9.626104656490497e-06,8.027352305362001e-05
-2.7544187105377205e-05,2.5293826183769852e-05,-3.5516161460691364e-06,8.499951945850626e-05
-2.686946936591994e-05,3.6322777305031195e-05,-4.871642431680812e-07,8.507989696227014e-05
-2.5560964786564e-05,4.705765240942128e-05,-2.173355142076616e-06,8.267232624348253e-05
-2.492918611096684e-05,4.515233013080433e-05,-5.416980457084719e-06,7.766395719954744e-05
-2.661221515154466e-05,3.374824154889211e-05,-6.5846452343976125e-06,7.27920196368359e-05
-3.044735422008671e-05,2.4378610760322772e-05,-5.933244665357051e-06,7.146517600631341e-05
-3.158152321702801e-05,2.4599843527539633e-05,-6.650402156083146e-06,7.334804104175419e-05
-2.8982925869058818e-05,3.324259159853682e-05,-1.001997497951379e-05,7.64176802476868e-05
-2.8722355637000874e-05,3.8238558772718534e-05,-1.3059155207884032e-05,7.671969069633633e-05
-3.051949533983134e-05,3.9500566344941035e-05,-1.2428497939254157e-05,7.294077659025788e-05
-3.0837625672575086e-05,4.203238495392725e-05,-1.0249008482787758e-05,6.946412031538785e-05
-2.9987042580614798e-05,3.823389488388784e-05,-9.073558430827688e-06,7.02620527590625e-05
-2.6050502128782682e-05,2.80060812656302e-05,-1.092524871637579e-05,7.163937698351219e-05
-2.451758882671129e-05,2.3054395569488406e-05,-1.2358657841105014e-05,7.114209438441321e-05
-2.505974771338515e-05,2.5462353733018972e-05,-1.0259678674628958e-05,6.891880184412003e-05
-2.577296254457906e-05,2.6614598027663305e-05,-8.32928708405234e-06,6.985978689044714e-05
-2.944918924185913e-05,2.9451131922542118e-05,-1.1600377547438256e-05,7.083838863763958e-05
-3.363976429682225e-05,3.372534774825908e-05,-1.561542921990622e-05,6.976605800446123e-05
-3.3991862437687814e-05,3.484278931864537e-05,-1.4920279681973625e-05,6.899310392327607e-05
-3.030363041034434e-05,3.115777508355677e-05,-1.049362890626071e-05,6.923100590938702e-05
-2.7811449399450794e-05,2.175295776396524e-05,-7.249849659274332e-06,6.871830555610359e-05
-3.0885861633578315e-05,2.1166169972275384e-05,-5.530892394745024e-06,6.517182191601023e-05
-3.262569589423947e-05,2.9417837140499614e-05,-6.531849521707045e-06,6.050119918654673e-05
-3.1223244150169194e-05,3.508765803417191e-05,-1.1103648830612656e-05,5.757505277870223e-05
-2.9899556466261856e-05,3.303600533399731e-05,-1.379076002194779e-05,5.866873834747821e-05
-3.0924889870220795e-05,2.546269206504803e-05,-1.199587950395653e-05,6.038797801011242e-05
-3.531698530423455e-05,2.102331563946791e-05,-1.0505008503969293e-05,6.0340775235090405e-05
-3.9319260395132005e-05,2.3989134206203744e-05,-1.191904902952956e-05,5.9180802054470405e-05
-3.853349699056707e-05,2.9423752494039945e-05,-1.2788963431376033e-05,5.896450238651596e-05
-3.2986637961585075e-05,3.068945079576224e-05,-1.084798168449197e-05,5.95625679125078e-05
-2.979255805257708e-05,2.8059466785634868e-05,-7.615549748152262e-06,5.779643834102899e-05
-3.0242228604038246e-05,2.2661408365820535e-05,-7.854040632082615e-06,5.3265604947227985e-05
-2.9910162993473932e-05,1.528646498627495e-05,-1.113832422561245e-05,5.098376641399227e-05
-2.911446244979743e-05,1.325440280197654e-05,-1.5168423487921245e-05,5.27135853189975e-05
-3.266501153120771e-05,2.2607615392189473e-05,-1.652580795052927e-05,5.727015741285868e-05
-3.373684376128949e-05,3.309836392872967e-05,-1.250212881132029e-05,6.081343599362299e-05
-2.8597714845091105e-05,3.808636756730266e-05,-8.39063613966573e-06,5.999620407237671e-05
-2.303979272255674e-05,3.818609911832027e-05,-7.961512892507017e-06,5.781267100246623e-05
-2.2604097466683015e-05,3.283113255747594e-05,-7.165326223912416e-06,5.784818495158106e-05
-2.2392929167835973e-05,2.7966205379925668e-05,-6.95109338266775e-06,6.014323662384413e-05
-1.8798156816046685e-05,2.4041404685704038e-05,-8.281570444523823e-06,6.324931746348739e-05
-1.6795151168480515e-05,1.7510485122329555e-05,-5.998416781949345e-06,6.74878538120538e-05
-1.7900167222251184e-05,1.2423387488524895e-05,-9.639068139222218e-07,6.427705375244841e-05
-2.0010547814308666e-05,1.640000664338004e-05,-1.4442859992414014e-06,5.884218626306392e-05
-2.208020305261016e-05,2.6465275368536822e-05,-8.430066372966394e-06,6.300808308878914e-05
-2.1144454876775853e-05,2.8303884391789325e-05,-1.2952825272805057e-05,6.779810064472258e-05
-1.804645944503136e-05,2.4923750970629044e-05,-1.1719309441104997e-05,7.114768959581852e-05
-1.7077161828638054e-05,2.742226752161514e-05,-9.343398232886102e-06,7.164065027609468e-05
-1.9175256966263987e-05,3.4911961847683415e-05,-8.284525392809883e-06,6.983903585933149e-05
-2.366030093980953e-05,3.612690125009976e-05,-7.90032026998233e-06,6.684639811282977e-05
-2.7372178010409698e-05,3.2376596209360287e-05,-6.388427664205665e-06,6.103932537371293e-05
-2.615467928990256e-05,3.0130498998914845e-05,-5.3941407713864464e-06,5.543016595765948e-05
-2.201063216489274e-05,2.3192900698632002e-05,-4.8544357014179695e-06,5.4045376600697637e-05
-2.1377461962401867e-05,1.2220127246109769e-05,-3.663019924715627e-06,5.5434866226278245e-05
-2.4292285161209293e-05,8.047652045206632e-06,-1.6797383750599693e-06,5.7245219068136066e-05
-2.6256213459419087e-05,1.1740053196263034e-05,4.805900175597344e-07,5.938400499871932e-05
-2.5405281121493317e-05,1.651931415835861e-05,2.1406513042165898e-06,6.130163819761947e-05
-2.4958957510534674e-05,2.156824484700337e-05,7.340066190408834e-07,6.060445957700722e-05
-2.614581899251789e-05,2.1534908228204586e-05,-2.822231635946082e-06,5.823374158353545e-05
-2.7020772904506885e-05,1.8909484424511902e-05,-4.500895101955393e-06,5.9054149460280314e-05
-2.626691639306955e-05,2.5373732569278218e-05,-4.879680545855081e-06,6.322103581624106e-05
-2.5942637876141816e-05,3.5229841159889475e-05,-3.5832567846227903e-06,6.600749475182965e-05
-2.9085787900839932e-05,3.378921246621758e-05,-9.231017088495719e-07,6.274029874475673e-05
-3.2354459108319134e-05,2.6871201043832116e-05,-3.9825940802984405e-06,5.588248313870281e-05
-3.1524308724328876e-05,2.641100400069263e-05,-1.0917771760432515e-05,5.021461765863933e-05
-3.229808862670325e-05,2.872740697057452e-05,-1.1524003639351577e-05,5.084163785795681e-05
-3.3412081393180415e-05,3.086840297328308e-05,-6.950994702492608e-06,5.555114694288932e-05
-3.021324664587155e-05,2.835559098457452e-05,-7.616208222316345e-06,5.9366335335653275e-05
-2.5166071282001212e-05,1.9920486010960303e-05,-1.4573927728633862e-05,5.8637422625906765e-05
-2.201713687099982e-05,1.1850984265038278e-05,-1.718465682643e-05,5.506273009814322e-05
-2.006063914450351e-05,9.835186574491672e-06,-1.699266977084335e-05,5.334112938726321e-05
-1.752139360178262e-05,1.8700051441555843e-05,-1.6939340639510192e-05,5.350940773496404e-05
-1.5482009985134937e-05,2.8451764592318796e-05,-1.6743764717830345e-05,5.3740008297609165e-05
-9.916163435264025e-06,2.600536390673369e-05,-1.6337491615558974e-05,5.663063711836003e-05
-4.855100087297615e-06,1.503378643974429e-05,-1.7591422874829732e-05,5.851630339748226e-05
-5.56490658709663e-06,1.0126678716915194e-05,-1.6146423149621114e-05,5.624938785331324e-05
-9.284442057833076e-06,1.4185181498760357e-05,-1.3619561286759563e-05,5.2318933740025386e-05
-1.4052597180125304e-05,2.1301932065398432e-05,-1.375448664475698e-05,5.09918354509864e-05
-1.7184498574351892e-05,2.260028304590378e-05,-1.2649219570448622e-05,5.399098517955281e-05
-1.8407916286378168e-05,1.922841875057202e-05,-9.708131074148696e-06,5.862535908818245e-05
-2.0046883946633898e-05,1.4281031326390803e-05,-8.250043720181566e-06,6.12798030488193e-05
-2.0573635993059725e-05,1.244548457179917e-05,-9.534297532809433e-06,6.13940428593196e-05
-1.984223308681976e-05,1.798919402062893e-05,-1.051248091243906e-05,6.172862777020782e-05
-2.09491317946231e-05,2.405602572252974e-05,-1.1910444300156087e-05,6.087553992983885e-05
-2.3593682271894068e-05,2.4084798496915027e-05,-1.1829888535430655e-05,5.786069232271984e-05
-2.4090317310765386e-05,2.0393341401359066e-05,-9.304242666985374e-06,5.481215339386836e-05
-2.1183961507631466e-05,1.9469080143608153e-05,-6.480873707914725e-06,5.298486939864233e-05
-1.7966518498724326e-05,2.2497610189020634e-05,-5.753932327934308e-06,5.109070480102673e-05
-1.9043674910790287e-05,2.6487176000955515e-05,-5.922324817220215e-06,5.041902477387339e-05
-2.595486876089126e-05,2.5584586182958446e-05,-7.2337752499151975e-06,5.217472426011227e-05
-3.297542571090162e-05,2.0189339920761995e-05,-8.426871318079066e-06,5.5956781579880044e-05
-3.371623461134732e-05,1.3923402548243757e-05,-7.044581252557691e-06,5.693788989447057e-05
-2.957445576612372e-05,1.3319017853063997e-05,-4.399421413836535e-06,5.508134563569911e-05
-2.5459026801399887e-05,1.7889193259179592e-05,-3.393839051568648e-06,5.690511534339748e-05
-2.6086023353855126e-05,2.1820886104251258e-05,-6.201443284226116e-06,5.8974852436222136e-05
-3.048088365176227e-05,1.7954858776647598e-05,-1.2949438314535655e-05,5.7730681874090806e-05
-2.9209701096988283e-05,1.1263136002526153e-05,-1.6330463040503673e-05,5.884069105377421e-05
-2.8387428756104782e-05,1.068646724888822e-05,-1.5582292689941823e-05,6.098449739511125e-05
-2.9729369998676702e-05,1.0107199159392621e-05,-1.4215338524081744e-05,5.9833939303644e-05
-2.7417518140282482e-05,8.58800376590807e-06,-1.3623598533740733e-05,5.66958769923076e-05
-2.8205584385432303e-05,1.1859807273140177e-05,-1.6564450561418198e-05,5.47264535271097e-05
-3.2186311727855355e-05,1.616810550331138e-05,-2.0069657693966292e-05,5.35031795152463e-05
-3.325367288198322e-05,1.9965485989814624e-05,-2.0597874026861973e-05,5.463913839776069e-05
-2.8552300136652775e-05,2.0225568732712418e-05,-1.9475375665933825e-05,5.79374645894859e-05
-2.3236592824105173e-05,1.5754128980915993e-05,-2.1530142475967295e-05,5.821044760523364e-05
-2.111363210133277e-05,1.4739943253516685e-05,-2.4753797333687544e-05,5.337448601494543e-05
-2.3083895939635113e-05,1.9582394088502042e-05,-2.4235278033302166e-05,5.0834154535550624e-05
-2.5630826712585986e-05,2.3355909434030764e-05,-2.100358142342884e-05,5.316591705195606e-05
-2.5060318876057863e-05,2.173499160562642e-05,-1.9431485270615667e-05,5.3816700528841466e-05
-2.2160093067213893e-05,1.4861528143228497e-05,-2.0541872800095007e-05,5.0413000280968845e-05
-2.0775296434294432e-05,1.168120616057422e-05,-2.015806057897862e-05,4.9621179641690105e-05
-2.2584592443308793e-05,1.6781612430349924e-05,-1.5394964066217653e-05,5.448108640848659e-05
-2.1316656784620136e-05,2.134865462721791e-05,-9.853180017671548e-06,5.7812630984699354e-05
-1.608894126547966e-05,2.1341085812309757e-05,-4.752803306473652e-06,5.60263215447776e-05
-1.5298994185286574e-05,1.8452041331329383e-05,1.9095230072707636e-06,5.52072306163609e-05
-2.183016658818815e-05,1.71942501765443e-05,7.595936494908528e-06,5.7481978728901595e-05
-2.792324266920332e-05,2.0041601601406e-05,7.593688224005746e-06,5.719045293517411e-05
-3.2497435313416645e-05,2.2069929400458932e-05,2.5790957352000987e-06,5.8612218708731234e-05
-3.511572867864743e-05,2.2400070520234294e-05,7.575598601761158e-07,5.969288031337783e-05
-3.342210402479395e-05,2.4043254597927444e-05,3.6418887248146348e-06,5.511911876965314e-05
-3.3068507036659867e-05,2.6148105462198146e-05,5.6097946981026325e-06,5.250217509455979e-05
-3.366596865816973e-05,2.6263862309860997e-05,4.35160291090142e-06,5.7184715842595324e-05
-3.4038883313769475e-05,2.5775258109206334e-05,3.2045838906924473e-06,6.291149475146085e-05
-3.6250352422939613e-05,2.8373697205097415e-05,1.1119926739411312e-06,6.848011980764568e-05
-3.798369289143011e-05,3.208133784937672e-05,-2.6443449314683676e-06,7.321807061089203e-05
-3.68599321518559e-05,3.7105677620274946e-05,-3.961547008657362e-06,7.367134094238281e-05
-3.370038393768482e-05,4.076972254551947e-05,-5.89903766012867e-06,7.062686199788004e-05
-3.0152372346492484e-05,4.0205872210208327e-05,-5.758241968578659e-06,6.569473043782637e-05
-2.6547104425844736e-05,3.494099291856401e-05,-4.189115770714125e-06,6.226091500138864e-05
-2.4888513507903554e-05,3.403772279853001e-05,-2.5024389742611675e-06,6.223102536750957e-05
-2.7162346668774262e-05,3.753462806344032e-05,-9.870923349808436e-07,6.437201227527112e-05
-3.3173961128341034e-05,3.986549563705921e-05,-3.4575641620904207e-06,6.513684638775885e-05
-3.6455698136705905e-05,3.7538804463110864e-05,-9.83780137175927e-06,6.32106966804713e-05
-3.5288707294967026e-05,3.518128869473003e-05,-1.5439860362675972e-05,6.0650349041679874e-05
-3.451865632086992e-05,3.770935654756613e-05,-1.7506206859252416e-05,6.000590292387642e-05
-3.438867497607134e-05,3.980749170295894e-05,-1.721168155199848e-05,5.992945079924539e-05
-3.176826794515364e-05,3.717903746291995e-05,-1.5384413927677087e-05,5.77631508349441e-05
-2.9012466256972402e-05,3.224743704777211e-05,-1.5392875866382383e-05,5.539443372981623e-05
-2.8210295567987487e-05,2.7600553949014284e-05,-1.614262509974651e-05,5.38797139597591e-05
-2.6997482564183883e-05,2.3665770640945993e-05,-1.5411800632136874e-05,5.36522529728245e-05
-2.61031436821213e-05,2.4363980628550053e-05,-1.333036652795272e-05,5.38288768439088e-05
-2.732173197728116e-05,2.6371995772933587e-05,-1.1575823918974493e-05,5.208887159824371e-05
-2.6686235287343152e-05,2.8297799872234464e-05,-1.2150288966950029e-05,5.0431688578100875e-05
-2.1979725715937093e-05,3.135715815005824e-05,-1.2754441740980837e-05,5.064634751761332e-05
-1.9124474420095794e-05,3.154656587867066e-05,-1.335099932475714e-05,5.0519451178843156e-05
-1.8771710529108532e-05,2.289502117491793e-05,-1.709502248559147e-05,4.911730866297148e-05
-1.8501090380595997e-05,1.5056870324769989e-05,-1.9054281438002363e-05,4.85593373014126e-05
-1.8428854673402384e-05,1.5455021639354527e-05,-1.857161805673968e-05,4.814732164959423e-05
-1.6197584045585245e-05,1.9789829821093008e-05,-1.2924330803798512e-05,4.846351657761261e-05
-1.5421253920067102e-05,2.016109647229314e-05,-4.453362180356635e-06,4.940325379720889e-05
-1.7406136976205744e-05,1.7661801393842325e-05,-4.15600516134873e-06,5.034735659137368e-05
-1.7892338291858323e-05,2.3318380044656806e-05,-9.674684406490996e-06,5.0363352784188464e-05
-1.9224236893933266e-05,3.104277129750699e-05,-1.3680891242984217e-05,4.736609844258055e-05
-1.9490527847665362e-05,3.7345802411437035e-05,-1.382323262077989e-05,4.537671702564694e-05
-1.966854506463278e-05,3.860824290313758e-05,-1.0606027899484616e-05,4.74259395559784e-05
-2.070776463369839e-05,3.112376361968927e-05,-7.341941000049701e-06,5.231357135926373e-05
-2.1371884940890595e-05,2.452352964610327e-05,-7.759757863823324e-06,5.495738878380507e-05
-2.1298585124895908e-05,1.9607901776907966e-05,-9.80704771791352e-06,5.726591552956961e-05
-2.1486723198904656e-05,2.002529799938202e-05,-7.838570127205458e-06,6.342222332023084e-05
-2.2204349079402164e-05,2.1649320842698216e-05,-2.3855332074163016e-06,6.838994158897549e-05
-2.3095386495697312e-05,1.9602775864768773e-05,-2.791143174363242e-07,6.756897346349433e-05
-2.2684283976559527e-05,1.6343117749784142e-05,-3.877746621583356e-06,6.484623736469075e-05
-2.1679048586520366e-05,1.6581912859692238e-05,-8.127450200845487e-06,6.290522287599742e-05
-2.529982702981215e-05,1.7935080904862843e-05,-9.071901331481058e-06,6.162333738757297e-05
-3.1204515835270286e-05,1.890065504994709e-05,-7.778314284223597e-06,6.28634006716311e-05
-3.244591789552942e-05,2.236999716842547e-05,-8.292780876217876e-06,6.345058500301093e-05
-2.667811349965632e-05,2.5475539587205276e-05,-1.2267869351489935e-05,6.293163460213691e-05
-2.185714583902154e-05,2.2371605155058205e-05,-1.691620309429709e-05,6.227286939974874e-05
-2.4349652449018322e-05,1.5673058442189358e-05,-2.120188764820341e-05,5.916057853028178e-05
-2.9883822207921185e-05,1.3468283214024268e-05,-2.327736910956446e-05,5.451752804219723e-05
-3.062790347030386e-05,1.7755617591319606e-05,-2.2182850443641655e-05,5.303939542500302e-05
-2.6888692445936613e-05,2.6855424948735163e-05,-1.9533323211362585e-05,5.502496787812561e-05
-2.4376633518841118e-05,3.149018812109716e-05,-1.6324467651429586e-05,5.894278365303762e-05
-2.3874290491221473e-05,2.4844432118698023e-05,-1.3028186913288664e-05,6.314407801255584e-05
-2.6613963200361468e-05,1.5799556422280148e-05,-1.3151307030057069e-05,6.401412247214466e-05
-2.8824615583289415e-05,1.115816667152103e-05,-1.681782305240631e-05,6.071979441912845e-05
-2.857498111552559e-05,9.77853596850764e-06,-1.5722651369287632e-05,5.7128738262690604e-05
-3.255136471125297e-05,1.597417394805234e-05,-9.339886673842557e-06,5.706955926143564e-05
-3.733504127012566e-05,2.2384649128071032e-05,-3.2304119486070704e-06,5.635572233586572e-05
-3.751616532099433e-05,2.671208858373575e-05,2.506822838199696e-08,5.5631808209000155e-05
-3.45343942171894e-05,2.993790985783562e-05,-1.3793263633488095e-06,5.636260175378993e-05
-3.167633985867724e-05,3.2656123948981985e-05,-3.6889189232169883e-06,5.4930576879996806e-05
-2.8649059458984993e-05,3.2765052310423926e-05,-6.11581208431744e-06,5.4815856856293976e-05
-2.7867396056535654e-05,3.358533649588935e-05,-9.782067536434624e-06,5.384854375733994e-05
-2.6921057724393904e-05,3.199963248334825e-05,-1.09357188193826e-05,5.220138336881064e-05
-2.410844354017172e-05,3.220503276679665e-05,-8.670906936458778e-06,5.007057552575134e-05
-2.3686243366682902e-05,3.4481450711609796e-05,-7.398077741527231e-06,4.6746146836085245e-05
-2.7245827368460596e-05,3.2608364563202485e-05,-8.33841841085814e-06,4.369498492451385e-05
-2.8565145839820616e-05,2.9732675102422945e-05,-1.1637056559266057e-05,4.662234277930111e-05
-2.503917130525224e-05,2.521270107536111e-05,-1.634403452044353e-05,5.514230360859074e-05
-2.258968561363872e-05,2.1815345462528057e-05,-2.0480943931033835e-05,6.174092413857579e-05
-2.3097774828784168e-05,2.046924601017963e-05,-2.2437117877416313e-05,6.409604975488037e-05
-2.4951659725047648e-05,1.909025013446808e-05,-2.039625724137295e-05,6.25114917056635e-05
-2.5474550056969747e-05,1.7951871996046975e-05,-1.671092650212813e-05,6.139367906143889e-05
-2.497955210856162e-05,2.1744017431046814e-05,-1.5412519132951275e-05,5.9293983213137835e-05
-2.4643650249345228e-05,2.3741518816677853e-05,-1.6171210518223234e-05,5.546964894165285e-05
-2.4959774236776866e-05,2.241577567474451e-05,-1.543349753774237e-05,5.306535604177043e-05
-2.6349653126089834e-05,2.1958861907478422e-05,-1.4996335266914684e-05,5.2677856729133055e-05
-2.9048802389297634e-05,2.7235444576945156e-05,-1.5936499039526097e-05,5.441013490781188e-05
-3.0275541575974785e-05,3.520865357131697e-05,-1.3445203876472078e-05,5.3409308748086914e-05
-2.9353317586355843e-05,3.4654414776014164e-05,-9.345271791971754e-06,4.799459929927252e-05
-2.721426062635146e-05,2.6095754947164096e-05,-1.1006982276740018e-05,4.551056190393865e-05
-2.4868006221367978e-05,2.35744610108668e-05,-1.4342637769004796e-05,4.660078775486909e-05
-2.586622940725647e-05,2.7377889637136832e-05,-1.0645158909028396e-05,4.594126221491024e-05
-3.0710521969012916e-05,3.237622877350077e-05,-8.338375664607156e-06,4.619797982741147e-05
-3.3364824048476294e-05,4.0719332901062444e-05,-9.637113180360757e-06,5.008421067032032e-05
-3.698711589095183e-05,4.492784501053393e-05,-6.443757683882723e-06,5.611043161479756e-05
-3.8629452319582924e-05,4.2591665987856686e-05,-2.8050935725332238e-06,6.312653567874804e-05
-3.487395224510692e-05,3.6163051845505834e-05,3.112623971901485e-07,6.528745871037245e-05
-2.708674583118409e-05,2.7586949727265164e-05,5.93684887917334e-07,6.487820064648986e-05
-2.024747482209932e-05,2.0739569663419388e-05,-9.360001627101155e-07,6.006461990182288e-05
-1.7391137589584105e-05,1.5763429473736323e-05,-3.234279802200035e-06,5.725872324546799e-05
-1.4860634109936655e-05,1.7975095033762045e-05,-4.446785169420764e-06,5.93030963500496e-05
-1.4168867892294656e-05,2.2909796825842932e-05,-2.4111211587296566e-06,6.249124999158084e-05
-1.661438545852434e-05,2.3262053218786605e-05,2.5702405537231243e-07,6.220874638529494e-05
-2.17366232391214e-05,2.1160341930226423e-05,1.9544386020697857e-07,6.067982758395374e-05
-2.571109143900685e-05,2.1111762180225924e-05,-1.5112711935216794e-06,6.017487612552941e-05
-2.749833402049262e-05,2.2355805413099006e-05,-1.6403946574428119e-06,5.937089372309856e-05
-2.8500668122433126e-05,2.5069934054045007e-05,-2.770204673652188e-06,6.11095383646898e-05
-2.9542858101194724e-05,2.63878027908504e-05,-6.147958174551604e-06,6.173149449750781e-05
-2.8258560632821172e-05,2.3131795387598686e-05,-9.444524948776234e-06,5.915734072914347e-05
-2.6771316697704606e-05,1.9632243493106216e-05,-8.332121069543064e-06,5.593752575805411e-05
-2.6557056116871536e-05,1.84065484063467e-05,-5.381967639550567e-06,5.813458847114816e-05
-2.4668226615176536e-05,1.632459861866664e-05,-3.4818417589121964e-06,6.30104768788442e-05
-2.29934485105332e-05,1.3210856195655651e-05,-3.0671994863951113e-06,6.521750037791207e-05
-2.5975894459406845e-05,1.749386137817055e-05,-6.6908501139550935e-06,6.399419362423941e-05
-2.8823775210184976e-05,2.365418549743481e-05,-1.2426907233020756e-05,6.4067033235915e-05
-2.650338865350932e-05,2.512454921088647e-05,-1.484164567955304e-05,6.224328535608947e-05
-2.4358832888538018e-05,2.272098936373368e-05,-1.2835270354116801e-05,5.82390530325938e-05
-2.5197425202350132e-05,2.1153760826564394e-05,-1.2646421964745969e-05,5.6458917242707685e-05
-2.5169269065372646e-05,2.3351529307547025e-05,-1.2357330888335127e-05,5.7509798352839425e-05
-2.3845805117161945e-05,2.361742008361034e-05,-8.636149686935823e-06,5.6238994147861376e-05
-2.1551093595917337e-05,2.0275931092328392e-05,-8.672116564412136e-06,5.5996184528339654e-05
-2.0567080355249345e-05,2.5644001652835868e-05,-8.02066278993152e-06,5.6375654821749777e-05
-2.238197521364782e-05,3.441164881223813e-05,-9.237553967977874e-06,5.4948552133282647e-05
-2.555520404712297e-05,3.739647218026221e-05,-1.3932332876720466e-05,5.42886700714007e-05
-2.7673013391904533e-05,3.9294554881053045e-05,-1.1485543836897705e-05,5.699893881683238e-05
-2.7596403015195392e-05,4.241009082761593e-05,-1.5940023558869143e-06,6.0206126363482326e-05
-2.8112088330090046e-05,4.488517879508436e-05,3.451433485679445e-06,6.085685163270682e-05
-3.0030912967049517e-05,4.271476063877344e-05,1.1722521975343625e-07,5.9722053265431896e-05
-3.0028761102585122e-05,3.7846475606784225e-05,-3.556702722562477e-06,5.7795743487076834e-05
-2.7580777896218933e-05,3.2026171538745984e-05,-4.703010290540988e-06,5.714383951271884e-05
-2.5721850761328824e-05,2.7343347028363496e-05,-7.837410521460697e-06,5.773679004050791e-05
-2.7006433811038733e-05,2.6138650355278514e-05,-1.431271721230587e-05,5.7569017371861264e-05
-2.9434813768602908e-05,2.726544153119903e-05,-1.987808536796365e-05,5.545386375160888e-05
-2.8822239983128384e-05,3.013549758179579e-05,-2.2029096726328135e-05,5.6028646213235334e-05
-2.6547488232608885e-05,3.437606937950477e-05,-1.8527061911299825e-05,5.792421507067047e-05
-2.4988967197714373e-05,3.7478410376934335e-05,-1.1104953046014998e-05,5.9013731515733525e-05
-2.2610935047850944e-05,3.785247463383712e-05,-5.786442216049181e-06,6.024895264999941e-05
-1.8991293472936377e-05,3.54256117134355e-05,-6.014104656060226e-06,6.355794903356582e-05
-2.142603261745535e-05,2.9254291803226806e-05,-7.502713742724154e-06,6.616621976718307e-05
-3.075337008340284e-05,1.9683027858263813e-05,-8.106438144750427e-06,6.875881808809936e-05
-3.967384691350162e-05,1.2081905879313126e-05,-7.101968549250159e-06,7.263810402946547e-05
-4.496488691074774e-05,1.1652972716547083e-05,-8.355684258276597e-06,7.3460498242639e-05
-4.489441926125437e-05,1.4076886145630851e-05,-1.1530261872394476e-05,6.794968794565648e-05
-3.913521868526004e-05,1.786303982953541e-05,-1.4125718735158443e-05,6.176590250106528e-05
-3.241031299694441e-05,2.241774018330034e-05,-1.6990763469948433e-05,5.655568384099752e-05
-2.923958709288854e-05,2.145338658010587e-05,-1.8895034372690134e-05,5.342924123397097e-05
-2.8207699870108627e-05,1.7745995137374848e-05,-2.1121022655279376e-05,5.342773874872364e-05
-2.7164804123458453e-05,1.2294869520701468e-05,-1.9838229491142556e-05,5.1802864618366584e-05
-2.728020444919821e-05,9.97488314169459e-06,-1.6349607903975993e-05,5.194219193072058e-05
-2.899737228290178e-05,9.130171747528948e-06,-1.484914082539035e-05,5.328387123881839e-05
-3.302214463474229e-05,6.961906819924479e-06,-1.4109138646745123e-05,5.416573185357265e-05
-3.326196383568458e-05,8.569089004595298e-06,-1.1396592526580207e-05,5.616314592771232e-05
-2.834986662492156e-05,1.1440296475484502e-05,-7.030019787634956e-06,5.5088155932025984e-05
-2.150081127183512e-05,1.3835955542162992e-05,-8.057730155996978e-06,5.3183106501819566e-05
-1.578817864356097e-05,1.2950015843671281e-05,-1.2725150554615539e-05,5.057810267317109e-05
-1.4123246728559025e-05,1.0349652256991249e-05,-1.5145053112064488e-05,4.75197630294133e-05
-1.6651070836815052e-05,7.1517661126563326e-06,-1.3966036021884065e-05,4.738839197671041e-05
-1.9474735381663777e-05,5.160000000614673e-06,-1.2311980754020624e-05,4.972061651642434e-05
-1.7962971469387412e-05,6.638319064222742e-06,-1.2867618352174759e-05,5.234628770267591e-05
-1.3132302228768822e-05,1.0618051419442054e-05,-1.4628497410740238e-05,5.330307612894103e-05
-8.305498340632766e-06,1.7385285900672898e-05,-1.3162324648874346e-05,5.659391172230244e-05
-7.919492418295704e-06,2.399040931777563e-05,-9.132466402661521e-06,6.224762910278514e-05
-1.2309122212172952e-05,2.5806684789131396e-05,-8.659089871798642e-06,6.626087269978598e-05
-1.815380710468162e-05,2.3767939637764357e-05,-1.0581670721876435e-05,6.546312215505168e-05
-1.9739411072805524e-05,2.304496956639923e-05,-1.082819107978139e-05,6.0498612583614886e-05
-1.773415169736836e-05,2.371860136918258e-05,-8.341309694515076e-06,5.594086178462021e-05
-1.4877950889058411e-05,2.7725143809220754e-05,-6.236731678654905e-06,5.6484033848391846e-05
-1.1131602150271647e-05,3.242184538976289e-05,-8.636380698590074e-06,5.967259130557068e-05
-8.97960035217693e-06,2.8514825316960923e-05,-1.2838943803217262e-05,6.041578672011383e-05
-8.661322681291495e-06,2.1459642084664665e-05,-1.269857330044033e-05,5.684486677637324e-05
-6.603861493204022e-06,2.1505828044610098e-05,-1.2813038665626664e-05,5.601330485660583e-05
-1.8774410364130745e-06,1.9216793589293957e-05,-1.8491638911655173e-05,5.873337431694381e-05
-3.9330525396508165e-06,1.9209674064768478e-05,-2.245156792923808e-05,5.793198215542361e-05
-1.2739100384351332e-05,2.671024776645936e-05,-2.2667374651064165e-05,6.0271024267422035e-05
-1.7323354768450372e-05,3.407326221349649e-05,-2.2172616809257306e-05,6.333743658615276e-05
-1.9538969354471192e-05,4.192633423372172e-05,-1.967807111213915e-05,6.108385423431173e-05
-2.120461613230873e-05,4.2940882849507034e-05,-1.6257588868029416e-05,5.866906212759204e-05
-2.0840592696913518e-05,3.689562436193228e-05,-1.2641332432394847e-05,5.733852231060155e-05
-2.185129778808914e-05,3.3008276659529656e-05,-1.087603686755756e-05,5.684469942934811e-05
-2.6306492145522498e-05,3.373389336047694e-05,-1.0562416719039902e-05,5.7941422710428014e-05
-2.7058600608143024e-05,3.3970882213907316e-05,-1.0405988177808467e-05,6.0173402744112536e-05
-2.5401268430869095e-05,3.343039861647412e-05,-8.751712812227197e-06,6.074715929571539e-05
-2.552921614551451e-05,3.3831271139206365e-05,-8.382839041587431e-06,5.8864086895482615e-05
-2.7481313736643642e-05,3.310311876703054e-05,-1.0860416296054609e-05,5.7871282479027286e-05
-3.0347415304277092e-05,2.7954451070399955e-05,-1.0495197784621269e-05,6.214169115992263e-05
-3.304842539364472e-05,2.5589433789718896e-05,-5.710756340704393e-06,6.841067806817591e-05
-3.141035631415434e-05,2.570730066508986e-05,-2.8287561235629255e-06,6.979062891332433e-05
-2.6362320568296127e-05,2.468936327204574e-05,-2.305171392436023e-06,6.683354877168313e-05
-2.5589473807485774e-05,2.5860752430162393e-05,-4.458767932646879e-07,6.37564662611112e-05
-2.729422521952074e-05,2.719833719311282e-05,2.0811181400404166e-07,6.16359175182879e-05
-2.6002335289376788e-05,2.361492079216987e-05,-2.173939947169856e-06,5.845123450853862e-05
-2.3250111553352326e-05,1.724757566989865e-05,-4.352960331743816e-06,5.6088087148964405e-05
-2.3236569177242927e-05,1.510837500973139e-05,-4.559847639029613e-06,5.352342486730777e-05
-2.668685556272976e-05,1.842741039581597e-05,-4.861029538005823e-06,5.0213417125632986e-05
-3.355066655785777e-05,2.5325711249024607e-05,-2.753487478912575e-06,5.1006401918129995e-05
-3.63576618838124e-05,2.5754963644430973e-05,-1.1560593975445954e-06,5.6486187531845644e-05
-3.390245183254592e-05,2.343930464121513e-05,-5.8915088629873935e-06,6.002804366289638e-05
-2.9539263778133318e-05,2.447000406391453e-05,-8.668786904308945e-06,6.20230202912353e-05
-2.7200781914871186e-05,2.541243338782806e-05,-8.156956027960405e-06,6.537037552334368e-05
-2.7181453333469108e-05,2.3649739887332544e-05,-9.420014066563454e-06,6.499517621705309e-05
-2.7467531253932975e-05,1.5937765056150965e-05,-1.0146650311071426e-05,6.303646659944206e-05
-2.882863554987125e-05,5.621512173092924e-06,-7.995783562364522e-06,6.322022090898827e-05
-2.9829692721250467e-05,1.2924167549499543e-06,-1.977866304514464e-06,6.673706957371905e-05
-2.9820736017427407e-05,4.891714070254238e-06,-2.2201630756057966e-08,6.995977309998125e-05
-2.8135289539932273e-05,1.2915365005028434e-05,-3.4631880225788336e-06,6.91137756803073e-05
-2.7626449082163163e-05,2.2079919290263206e-05,-9.50311641645385e-06,6.669473077636212e-05
-2.90227253572084e-05,2.782046067295596e-05,-1.3150027371011674e-05,6.309444870566949e-05
-3.1372939702123404e-05,2.95733680104604e-05,-1.215269548993092e-05,5.671738108503632e-05
-3.744385685422458e-05,3.0460469133686274e-05,-1.0520844625716563e-05,5.175674596102908e-05
-4.1634390072431415e-05,2.9848381018382497e-05,-1.090158912120387e-05,5.264568608254194e-05
-3.9462793210987e-05,2.6625577447703108e-05,-1.2435567441571038e-05,5.627644350170158e-05
-3.455295518506318e-05,2.3115931981010363e-05,-1.4687896509713028e-05,6.0084341384936124e-05
-3.3334952604491264e-05,2.073923678835854e-05,-1.6666212104610167e-05,6.136157753644511e-05
-3.325036959722638e-05,2.1197987734922208e-05,-1.541358869872056e-05,5.934846558375284e-05
-3.1215538911055773e-05,2.6686422643251717e-05,-1.3497767213266343e-05,5.6017586757661775e-05
-2.908189344452694e-05,3.367158933542669e-05,-1.1653076398943085e-05,5.2547511586453766e-05
-2.866436079784762e-05,4.061985237058252e-05,-7.388046924461378e-06,5.124500967212953e-05
-2.8725202355417423e-05,4.3636180635076016e-05,-1.8588214061310282e-06,5.454254278447479e-05
-2.698668322409503e-05,3.691275924211368e-05,-2.0315987967478577e-06,5.863804472028278e-05
-2.6266401619068347e-05,2.412923458905425e-05,-5.240008249529637e-06,5.88941911701113e-05
-2.80744116025744e-05,1.9391161913517863e-05,-4.8475003495696e-06,5.6747823691694066e-05
-3.074142659897916e-05,2.8090875275665894e-05,-2.0529148514469853e-06,5.269980101729743e-05
-3.2331179681932554e-05,3.956903674406931e-05,-4.743865702039329e-06,4.76755085401237e-05
-3.2034502510214224e-05,4.328646173235029e-05,-1.1270539289398585e-05,4.815331340068951e-05
-3.0516268452629447e-05,3.583604484447278e-05,-1.3413272426987533e-05,5.47428207937628e-05
-2.6846919354284182e-05,2.407724787190091e-05,-9.128504643740598e-06,5.967009565210901e-05
-2.20266174437711e-05,1.9067367247771472e-05,-4.179777533863671e-06,6.232088344404474e-05
-2.0472696633078158e-05,2.119675809808541e-05,-3.251630005252082e-06,6.251185550354421e-05
-2.126562139892485e-05,2.1051364456070587e-05,-6.229335667740088e-06,5.7223329349653795e-05
-2.45443206949858e-05,1.5055141375341918e-05,-1.105080264096614e-05,5.230741226114333e-05
-2.686865445866715e-05,7.888662366895005e-06,-1.1249964700255077e-05,5.2662846428574994e-05
-2.5186991479131393e-05,3.86475994673674e-06,-8.582210284657776e-06,5.650380262522958e-05
-2.1388541426858865e-05,6.975698852329515e-06,-6.1382124840747565e-06,5.7837696658680215e-05
-2.237039188912604e-05,1.3076814866508357e-05,-6.562429007317405e-06,5.502127896761522e-05
-2.568953095760662e-05,1.3267231224745046e-05,-8.80885090737138e-06,5.097628672956489e-05
-2.6685673219617456e-05,1.1593429007916711e-05,-1.2112988770240918e-05,4.965053449268453e-05
-2.478605711075943e-05,1.2666891961998772e-05,-1.5355044524767436e-05,5.2815106755588204e-05
-2.459214192640502e-05,1.860110387497116e-05,-1.7717375158099458e-05,5.778736885986291e-05
-2.6786907255882397e-05,2.134200622094795e-05,-2.0779032638529316e-05,6.13437223364599e-05
-2.807511918945238e-05,1.831276313168928e-05,-2.3085158318281174e-05,6.198634946485981e-05
-2.8209757147124037e-05,1.3769955330644734e-05,-2.1968291548546404e-05,6.136040610726923e-05
-2.5970277420128696e-05,8.972001523943618e-06,-1.9577008060878143e-05,6.117013253970072e-05
-2.2298292606137693e-05,5.688114470103756e-06,-1.927121411426924e-05,6.210087303770706e-05
-1.9970253561041318e-05,1.0386431313236244e-05,-1.9037328456761315e-05,6.428292545024306e-05
-2.2429081582231447e-05,1.92446714208927e-05,-1.714755126158707e-05,6.672376912320033e-05
-2.8136202672612853e-05,2.189728729717899e-05,-1.2669736861425918e-05,6.768985622329637e-05
-2.9544762583100237e-05,2.1034382370999083e-05,-8.792719199846033e-06,7.048180123092607e-05
-2.487972960807383e-05,2.3514874555985443e-05,-1.0911683602898847e-05,7.252702926052734e-05
-2.2247444576350972e-05,2.779266651486978e-05,-1.63031345437048e-05,7.31481850380078e-05
-2.174122528231237e-05,3.200334685971029e-05,-1.6337282431777567e-05,7.233904034364969e-05
-2.1971780370222405e-05,2.9444578103721142e-05,-1.096721098292619e-05,6.746019789716229e-05
-2.2941369024920277e-05,2.340276842005551e-05,-5.251641596260015e-06,6.249096622923389e-05
-2.392224814684596e-05,2.533264341764152e-05,-1.974879069166491e-06,5.891052569495514e-05
-2.2659804017166607e-05,2.064245563815348e-05,-4.999156999474508e-08,5.721842899220064e-05
-2.026537731580902e-05,1.2892420272692107e-05,-2.9359191557887243e-06,5.6744011089904234e-05
-2.064156433334574e-05,8.838236681185663e-06,-6.87795136400382e-06,5.623131801257841e-05
-2.2645024728262797e-05,1.1787019502662588e-05,-9.360817784909159e-06,5.477532613440417e-05
-2.298150684509892e-05,2.2185175112099387e-05,-1.0984803338942584e-05,5.3589013987220824e-05
-2.3912582037155516e-05,3.2063831895357e-05,-9.852943549049087e-06,5.5619024351472035e-05
-2.694554495974444e-05,3.452047531027347e-05,-8.74926263350062e-06,5.863317346666008e-05
-2.995654176629614e-05,2.8412916435627267e-05,-8.750675988267176e-06,5.9603356930892915e-05
-3.0092984161456116e-05,2.115216375386808e-05,-8.176499250112101e-06,5.93939985265024e-05
-2.8090897103538737e-05,1.8959251974592917e-05,-7.811826435499825e-06,5.778265040135011e-05
-2.5249173631891608e-05,2.326554931642022e-05,-9.193560799758416e-06,5.278651951812208e-05
-2.5302726498921402e-05,2.7719428544514813e-05,-9.1761621661135e-06,4.5908982428954914e-05
-2.668269553396385e-05,2.71442058874527e-05,-8.640512533020228e-06,4.5042845158604905e-05
-2.4337583454325795e-05,2.4604845748399384e-05,-7.93109393271152e-06,5.154931568540633e-05
-2.248269993287977e-05,2.391885209362954e-05,-6.799014954594895e-06,5.969599078525789e-05
-2.6590425477479585e-05,2.6647516278899275e-05,-5.242381575953914e-06,6.549162935698405e-05
-3.099135938100517e-05,3.0501401852234267e-05,-4.616966634785058e-06,6.513234984595329e-05
-3.0558039725292474e-05,3.3397882361896336e-05,-5.9321105254639406e-06,5.92269170738291e-05
-2.777293775579892e-05,3.343046410009265e-05,-9.443799172004219e-06,5.6022752687567845e-05
-2.6250863811583258e-05,2.9076518330839463e-05,-1.372754923067987e-05,6.150205445010215e-05
-2.3487467842642218e-05,2.6585343221086077e-05,-1.6914109437493607e-05,6.684652180410922e-05
-1.8508495486457832e-05,2.6771540433401242e-05,-1.7806511095841415e-05,6.491178646683693e-05
-2.0314515495556407e-05,2.8665885110967793e-05,-1.626052471692674e-05,6.32443989161402e-05
-2.5495859517832287e-05,3.132643541903235e-05,-1.540093398944009e-05,6.29639471299015e-05
-2.658524135767948e-05,3.9144095353549346e-05,-1.3371227396419272e-05,5.971930659143254e-05
-2.3349657567450777e-05,4.3117259338032454e-05,-1.0991228009515908e-05,5.5727763538016006e-05
-2.098964250762947e-05,4.1089599108090624e-05,-1.114203769247979e-05,5.740249980590306e-05
-1.8733202523435466e-05,3.978523818659596e-05,-1.1863476174767129e-05,6.251256127143279e-05
-1.8314643966732547e-05,3.57476674253121e-05,-1.06301304185763e-05,6.336790829664096e-05
-1.9105222236248665e-05,3.407995245652273e-05,-8.7365297076758e-06,6.090261376812123e-05
-1.981530658667907e-05,3.636940164142288e-05,-7.630623258592095e-06,5.880366006749682e-05
-1.957285167009104e-05,3.750879113795236e-05,-5.884801339561818e-06,6.262600800255314e-05
-1.7159378330688924e-05,3.640337672550231e-05,-5.337247330317041e-06,6.686752021778375e-05
-1.5164303476922214e-05,3.484281842247583e-05,-4.946874923916766e-06,6.523366755573079e-05
-1.554566370032262e-05,3.0907052860129625e-05,-4.282476766093168e-06,6.299494998529553e-05
-1.9685598090291023e-05,2.9507216822821647e-05,-5.1391457418503705e-06,6.34451353107579e-05
-2.5109447960858233e-05,3.2517025829292834e-05,-1.0134681360796094e-05,6.44740866846405e-05
-3.120937981293537e-05,3.236830889363773e-05,-1.3154278349247761e-05,6.43183957436122e-05
-3.599042975110933e-05,2.8093532819184475e-05,-1.0150268280995078e-05,6.101009785197675e-05
-3.676162668853067e-05,2.853220939869061e-05,-5.912523192819208e-06,5.647776561090723e-05
-3.331580228405073e-05,3.4769207559293136e-05,-6.112805294833379e-06,5.325638994690962e-05
-2.9468797947629355e-05,3.9733058656565845e-05,-1.1267624358879402e-05,5.380441507440992e-05
-2.6729709134087898e-05,4.027584145660512e-05,-1.4681837456009816e-05,5.722203786717728e-05
-2.577194209152367e-05,3.589038533391431e-05,-1.1860307495226152e-05,5.810409493278712e-05
-2.6440638976055197e-05,2.95118097710656e-05,-7.53712811274454e-06,5.735544255003333e-05
-2.5926616217475384e-05,2.4312405003001913e-05,-9.427278200746514e-06,5.771818177890964e-05
-2.5324965463369153e-05,1.9763645468628965e-05,-1.246349529537838e-05,6.0283746279310435e-05
-2.5039922547875904e-05,1.759671067702584e-05,-1.0371777534601279e-05,6.253215542528778e-05
-2.4173112251446582e-05,1.7744512661010958e-05,-6.37062976238667e-06,6.1364087741822e-05
-2.631525057950057e-05,1.57593640324194e-05,-8.795714165898971e-06,5.636969217448495e-05
-3.1034258427098393e-05,1.1389754945412278e-05,-1.2993553355045151e-05,5.321943172020838e-05
-3.319109237054363e-05,8.907212759368122e-06,-1.566994615131989e-05,5.4757605539634824e-05
-3.140650369459763e-05,1.792256261978764e-05,-1.8671109501156025e-05,5.843371036462486e-05
-3.0480472560157068e-05,2.4768934963503852e-05,-1.891373540274799e-05,5.671210237778723e-05
-3.4482702176319435e-05,1.7644053514231928e-05,-1.7038688383763656e-05,4.9986756494035944e-05
-3.518729499774054e-05,4.568580607156036e-06,-1.319048988079885e-05,4.984000770491548e-05
-3.105690484517254e-05,-2.5860877030936535e-06,-1.1065298167522997e-05,5.7103945437120274e-05
-2.9079465093673207e-05,7.474040103261359e-06,-1.3192415281082503e-05,5.921175397816114e-05
-2.8616726922336966e-05,2.235467945865821e-05,-1.4557735084963497e-05,5.3916850447421893e-05
-3.057029243791476e-05,2.521365968277678e-05,-1.4094241123530082e-05,5.020786920795217e-05
-3.3821816032286733e-05,2.122027763107326e-05,-1.3282865438668523e-05,5.163239984540269e-05
-3.378856854396872e-05,1.8201517377747223e-05,-1.2695313671429176e-05,5.489077011588961e-05
-3.0035365853109397e-05,1.7948757886188105e-05,-1.1624131730059162e-05,5.546520696952939e-05
-2.893445525842253e-05,2.0229943402227946e-05,-9.969630809791852e-06,5.5064698244677857e-05
-3.142072819173336e-05,1.9025079382117838e-05,-9.211123142449651e-06,5.383293319027871e-05
-3.6319812352303416e-05,1.442117354599759e-05,-9.896040864987299e-06,5.128115299157798e-05
-3.8840364140924066e-05,1.3466387827065773e-05,-1.129514021158684e-05,5.0240825657965615e-05
-3.46559208992403e-05,1.9563363821362145e-05,-1.0609127457428258e-05,5.1614279072964564e-05
-2.7160604076925665e-05,2.655393473105505e-05,-5.977135970169911e-06,5.333154331310652e-05
-2.2603268007515e-05,3.133491918561049e-05,-1.943992629094282e-06,5.539019184652716e-05
-2.2503947548102587e-05,3.3603206247789785e-05,-2.1783589545520954e-06,5.4229974921327084e-05
-2.346313704038039e-05,3.241586091462523e-05,-6.341259904729668e-06,4.958229692419991e-05
-2.451317232043948e-05,2.616594429127872e-05,-1.2072650861227885e-05,4.7396089939866215e-05
-2.4862709324224852e-05,1.7903854313772172e-05,-1.578116098244209e-05,5.099514237372205e-05
-2.6143230570596643e-05,1.58516522787977e-05,-1.6209978639381006e-05,5.6687782489461824e-05
-2.6733181584859267e-05,1.952398451976478e-05,-1.4681465472676791e-05,5.964964657323435e-05
-2.7478190531837754e-05,1.9501223505358212e-05,-1.3378564290178474e-05,5.89015289733652e-05
-2.8011962058371864e-05,1.5333489500335418e-05,-1.0561307135503739e-05,5.7269437093054876e-05
-2.6137387976632454e-05,1.2121026884415187e-05,-8.679749043949414e-06,5.7495162764098495e-05
-2.6221438020002097e-05,1.3611761460197158e-05,-9.074906301975716e-06,5.701987538486719e-05
-3.1370887882076204e-05,1.7099815522669815e-05,-6.1894243117421865e-06,5.681747279595584e-05
-3.7585123209282756e-05,1.962780333997216e-05,-1.6979831798380474e-06,5.611488450085744e-05
-3.968251257902011e-05,2.2857842850498855e-05,-2.532983216951834e-06,5.5502128816442564e-05
-3.817891774815507e-05,2.345994653296657e-05,-3.8190369195945095e-06,5.637314825435169e-05
-3.497349825920537e-05,2.8138081688666716e-05,-2.783782065307605e-06,5.981684444122948e-05
-3.149026451865211e-05,3.626586476457305e-05,-4.614848421624629e-06,6.191535067046061e-05
-3.2928270229604095e-05,3.954483327106573e-05,-6.865639988973271e-06,5.955406231805682e-05
-3.577630559448153e-05,3.5667144402395934e-05,-5.037490154791158e-06,5.571189831243828e-05
-3.294861744507216e-05,2.966612737509422e-05,-1.4875261058477918e-06,5.3678137192036957e-05
-2.532100370444823e-05,2.637735269672703e-05,-1.47194853639121e-07,5.3422681958181784e-05
-2.1186438971199095e-05,2.541385401855223e-05,-8.963959317043191e-07,5.134142702445388e-05
-2.2745713067706674e-05,2.6985368094756268e-05,-1.3779608707409352e-06,4.981153688277118e-05
-2.593364115455188e-05,2.9714365155086853e-05,3.047685197543615e-07,5.164604226592928e-05
-2.5916777303791605e-05,3.28458881995175e-05,2.8569156711455435e-06,5.545480235014111e-05
-2.2168460418470204e-05,3.412811565794982e-05,2.555427954575862e-06,5.818356657982804e-05
-2.0901899915770628e-05,3.5368240787647665e-05,-3.1036438485898543e-06,5.742027860833332e-05
-2.352226510993205e-05,3.629313505371101e-05,-8.140261343214661e-06,5.564519597101025e-05
-2.5853434635791928e-05,3.450043004704639e-05,-6.797662081226008e-06,5.68666509934701e-05
-2.5649638700997457e-05,3.071470928261988e-05,-3.0258561309892684e-06,6.150643457658589e-05
-2.5735267627169378e-05,2.8935271984664723e-05,-1.1513948265928775e-06,6.558088352903724e-05
-2.7313737518852577e-05,2.7794429115601815e-05,-1.8702336319620372e-06,6.447396299336106e-05
-2.8330068744253367e-05,2.3681201128056273e-05,-4.0070940485748e-06,6.038098581484519e-05
-2.704907274164725e-05,2.3957387384143658e-05,-4.614103090716526e-06,5.8439094573259354e-05
-2.6002446247730404e-05,2.310629679413978e-05,-3.637852614701842e-06,5.723322828998789e-05
-2.6135485313716345e-05,1.9385150153539144e-05,-3.0680726013088133e-06,5.4296171583700925e-05
-2.3912709366413765e-05,1.8411656128591858e-05,-3.1712636427982943e-06,5.203832552069798e-05
-1.8781007383950055e-05,2.0405745090101846e-05,-5.70146494283108e-06,4.984618499292992e-05
-1.646632699703332e-05,2.4051925720414147e-05,-9.776780643733218e-06,5.0405407819198444e-05
-1.8649574485607445e-05,2.2020905817043968e-05,-9.493250217929017e-06,5.646221688948572e-05
-1.9975452232756652e-05,1.9035554942092858e-05,-6.078924798202934e-06,6.194519664859399e-05
-1.9110095308860764e-05,2.029591632890515e-05,-3.0820767733530374e-06,6.555664731422439e-05
-2.313433105882723e-05,2.15448162634857e-05,-3.908303654043266e-07,6.752600893378258e-05
-2.8397509595379233e-05,1.9678658645716496e-05,-1.1774629911087686e-06,6.588944233953953e-05
-3.0027660613995977e-05,1.9118873751722276e-05,-4.48075343228993e-06,6.411797949112952e-05
-2.5761521101230755e-05,2.2966762116993777e-05,-8.830477781884838e-06,6.24819949734956e-05
-2.1355146600399166e-05,3.338265742058866e-05,-1.1955241461691912e-05,6.171329732751474e-05
-2.1617684978991747e-05,4.181812619208358e-05,-1.2165982298029121e-05,5.8724359405459836e-05
-2.2566064217244275e-05,4.446406092029065e-05,-1.0288655175827444e-05,5.459924432216212e-05
-2.5029432435985655e-05,4.53953180112876e-05,-7.645703590242192e-06,5.240398968453519e-05
-2.5925215595634654e-05,4.4803684431826696e-05,-5.755654001404764e-06,4.9717822548700497e-05
-2.473441963957157e-05,4.297787745599635e-05,-6.203195425769081e-06,4.682438157033175e-05
-2.1186404410400428e-05,3.966177609981969e-05,-8.834283107717056e-06,4.630753755918704e-05
-1.9074796000495553e-05,3.652319355751388e-05,-9.717502507555764e-06,4.887861723545939e-05
-2.062863131868653e-05,3.738968734978698e-05,-1.0339034815842751e-05,5.194141704123467e-05
-2.2059270122554153e-05,3.9764880057191476e-05,-1.6471727576572448e-05,5.341538053471595e-05
-2.0842795493081212e-05,3.593769724830054e-05,-2.62944886344485e-05,5.3145966376177967e-05
-1.98064972209977e-05,2.9604167139041238e-05,-3.149664917145856e-05,5.32898266101256e-05
-1.944177711266093e-05,2.562080044299364e-05,-2.958237200800795e-05,5.466840593726374e-05
-1.8112325051333755e-05,2.567682349763345e-05,-2.3687023713137023e-05,5.602258170256391e-05
-1.7478663721703924e-05,2.4945498807937838e-05,-1.9510982383508235e-05,5.8380373957334086e-05
-1.786344000720419e-05,2.3032196622807533e-05,-1.7187494449899532e-05,6.225879769772291e-05
-1.831653389672283e-05,2.073907307931222e-05,-1.4320173249871004e-05,6.399573612725362e-05
-1.7714526620693505e-05,1.582413460710086e-05,-1.4016376553627197e-05,6.413429946405813e-05
-1.8803943021339364e-05,8.564420568291098e-06,-1.5728643120382912e-05,6.286209827521816e-05
-2.2852369511383586e-05,2.167974798794603e-06,-1.7831272998591885e-05,5.925119694438763e-05
-2.2330868887365796e-05,4.3489330892043654e-07,-2.031253643508535e-05,5.943185169599019e-05
-1.9303430235595442e-05,1.7004133496811846e-06,-2.1333056793082505e-05,6.111952097853646e-05
-1.9447152226348408e-05,4.913219981972361e-06,-2.1024861780460924e-05,6.0935228248126805e-05
-2.1652751456713304e-05,1.433412944606971e-05,-1.6799138393253088e-05,6.420657882699743e-05
-2.369555295445025e-05,2.0340728951850906e-05,-1.2034970495733432e-05,6.528160884045064e-05
-2.3038446670398116e-05,1.9012308257515542e-05,-8.836390406941064e-06,6.323456182144582e-05
-2.3079521270119585e-05,1.656589302001521e-05,-7.939904207887594e-06,6.254731124499813e-05
-2.41624002228491e-05,1.570207496115472e-05,-1.0622072295518592e-05,6.512297841254622e-05
-2.7407639208831824e-05,1.6810145098133944e-05,-1.1339025149936788e-05,6.785041477996856e-05
-3.16427176585421e-05,1.7980630218517035e-05,-9.629861779103521e-06,6.850987847428769e-05
-3.427616320550442e-05,1.9024098946829326e-05,-7.14226416675956e-06,6.654939352301881e-05
-3.2841857318999246e-05,1.703870657365769e-05,-5.25841051057796e-06,6.609820411540568e-05
-2.7993039111606777e-05,1.2970846910320688e-05,-5.243050964054419e-06,6.698546349070966e-05
-2.3794162189005874e-05,1.1617436939559411e-05,-9.138465429714415e-06,6.584117363672704e-05
-2.176065754611045e-05,1.4718539205205161e-05,-1.580198841111269e-05,6.449154170695692e-05
-2.0019955627503805e-05,1.8296734197065234e-05,-2.2238837118493393e-05,6.570178811671212e-05
-1.7448073776904494e-05,1.8829601685865782e-05,-2.4480190404574387e-05,6.922620377736166e-05
-1.692246223683469e-05,1.9155229892930947e-05,-1.9304581655887887e-05,7.23132980056107e-05
