-2.5078388716792688e-05,-1.7565471353009343e-05,-2.6105140932486393e-05,5.0242364523001015e-05
-1.9048444301006384e-05,1.1745984011213295e-05,-2.260096516693011e-05,5.2941057219868526e-05
-1.7117688912549056e-05,2.9726592401857488e-05,-1.631854502193164e-05,5.3897536417935044e-05
-2.0800403945031576e-05,2.4063388991635293e-05,-1.2822411918023136e-05,5.174781836103648e-05
-2.460773612256162e-05,1.712606353976298e-05,-1.4898889276082627e-05,4.884156442130916e-05
-2.7982943720417097e-05,2.0793790099560283e-05,-1.7164631572086364e-05,4.896473546978086e-05
-3.262014433857985e-05,3.115634171990678e-05,-1.7427129932912067e-05,5.265517029329203e-05
-3.418299093027599e-05,2.572667108324822e-05,-1.5965200873324648e-05,5.5219574278453365e-05
-3.439704596530646e-05,-1.3392437722359318e-05,-1.621815681573935e-05,5.4543826990993693e-05
-3.7510708352783695e-05,-6.050076990504749e-05,-1.6698488252586685e-05,5.3954237955622375e-05
-4.0624086977913976e-05,-7.518939673900604e-05,-1.2354109458101448e-05,5.45454204257112e-05
-3.971887053921819e-05,-5.2142058848403394e-05,-6.623712124564918e-06,5.0997732614632696e-05
-3.745510912267491e-05,-1.2178124961792491e-05,-5.126353698869934e-06,4.805706339539029e-05
-3.541584010235965e-05,1.6399839296354912e-05,-6.839763045718428e-06,5.0035054300678894e-05
-3.348569953232072e-05,1.9091145077254623e-05,-8.757699106354266e-06,5.369569771573879e-05
-3.27971538354177e-05,4.888304374617292e-06,-1.0053639016405214e-05,5.4614436521660537e-05
-3.3362146496074274e-05,-5.785155281046173e-06,-6.815662345616147e-06,5.353565939003602e-05
-3.42117746185977e-05,-1.5641541040167795e-06,5.741872541875637e-07,5.258370583760552e-05
-3.093495615758002e-05,8.713130227988586e-06,7.652830390725285e-06,5.453198536997661e-05
-2.4529676011297852e-05,1.1147936675115488e-05,8.017068466870114e-06,5.9261798014631495e-05
-1.9883536879206076e-05,5.897964456380578e-06,1.6952833448158344e-06,6.381454295478761e-05
-1.7046824723365717e-05,9.589169167156797e-06,-4.251662630849751e-06,6.802109419368207e-05
-1.3912776012148242e-05,1.9659277313621715e-05,-1.5447383248101687e-06,7.104146061465144e-05
-1.0521639524085913e-05,3.218605706933886e-05,3.856491730402922e-06,7.328430365305394e-05
-9.313330338045489e-06,4.426086525199935e-05,5.931936811975902e-06,7.230056507978588e-05
-1.243716360477265e-05,4.5568336645374075e-05,2.959197445306927e-06,7.144734263420105e-05
-1.3342255442694295e-05,3.5734305129153654e-05,-5.029573003412224e-06,7.185702997958288e-05
-1.3454205145535525e-05,2.7575828426051885e-05,-1.0881728485401254e-05,7.125659612938762e-05
-1.734222678351216e-05,2.885131470975466e-05,-9.58444616117049e-06,7.191702025011182e-05
-2.1219104382907972e-05,2.307873910467606e-05,-6.040539574314607e-06,7.02337856637314e-05
-2.3308821255341172e-05,1.4991371244832408e-05,-6.431117981264833e-06,6.369569018715993e-05
-2.714741822273936e-05,1.66580721270293e-05,-1.0026425115938764e-05,6.239379581529647e-05
-3.0369330488611013e-05,2.4843739083735272e-05,-1.553656875330489e-05,6.328380550257862e-05
-2.7659631086862646e-05,3.4582513762870803e-05,-1.9814237020909786e-05,6.067258073017001e-05
-2.4092878447845578e-05,3.88010339520406e-05,-1.91434573935112e-05,5.716035593650304e-05
-2.3117416276363656e-05,4.198643728159368e-05,-1.5737261492176913e-05,5.5346688895951957e-05
-2.5336930775665678e-05,3.945200296584517e-05,-1.3647167179442476e-05,5.4755051678512245e-05
-2.7077745471615344e-05,3.390548954484984e-05,-1.3972170563647524e-05,5.2813240472460166e-05
-2.8038726668455638e-05,3.390819256310351e-05,-1.5678606359870173e-05,5.3806255891686305e-05
-2.8238320737727918e-05,3.826348984148353e-05,-1.4194359209795948e-05,5.7137182011501864e-05
-2.8129879865446128e-05,3.5904675314668566e-05,-9.21641185414046e-06,5.924755532760173e-05
-2.9808397812303156e-05,2.9135637305444106e-05,-6.355205641739303e-06,5.6921639043139294e-05
-3.109244426013902e-05,2.6569978217594326e-05,-6.669776212220313e-06,5.347391925170086e-05
-3.123546775896102e-05,2.657145705597941e-05,-6.87099009155645e-06,5.399735891842283e-05
-3.388124969205819e-05,2.8304450097493827e-05,-8.809714927338064e-06,5.47453855688218e-05
-3.685252886498347e-05,2.9412040021270514e-05,-1.5121758224267978e-05,5.242530460236594e-05
-3.2824922527652234e-05,2.3425518520525657e-05,-2.2864669517730363e-05,4.903194712824188e-05
-2.66552760876948e-05,1.3039503755862825e-05,-2.7111709641758353e-05,4.6616340114269406e-05
-2.5716199161252007e-05,8.731984053156339e-06,-2.611196214274969e-05,4.543981049209833e-05
-2.627229150675703e-05,1.1913481102965306e-05,-2.070138907583896e-05,4.3623836972983554e-05
-2.5802866730373353e-05,2.229277561127674e-05,-1.5300061932066455e-05,4.350940071162768e-05
-2.6382931537227705e-05,2.567557203292381e-05,-1.336266450380208e-05,4.495234679779969e-05
-2.7617643354460597e-05,9.882932317850646e-06,-1.4209899745765142e-05,4.663580693886615e-05
-2.7756477720686235e-05,-1.1912403351743706e-05,-1.1188787539140321e-05,5.1045080908806995e-05
-2.59022563113831e-05,-2.5008717784658074e-05,-3.720582526511862e-06,5.738045001635328e-05
-2.2478521714219823e-05,-2.766867146419827e-05,-1.9304877696413314e-06,6.363636202877387e-05
-1.8227574400953017e-05,-2.6744219212559983e-05,2.376158590777777e-06,6.272073369473219e-05
-1.694198181212414e-05,-2.6793130018631928e-05,9.500440683041234e-06,5.712716665584594e-05
-1.775151577021461e-05,-1.4055553037906066e-05,1.2146971130277961e-05,5.582994344877079e-05
-1.823831735237036e-05,8.971794159151614e-06,1.1290495422144886e-05,5.9057063481304795e-05
-1.5142993106564973e-05,2.951697570097167e-05,6.518376267194981e-06,6.0235135606490076e-05
-1.2268204045540188e-05,3.9544749597553164e-05,-9.981257562685641e-07,5.910909749218263e-05
-1.3857517842552625e-05,4.5285305532161146e-05,-1.045194312609965e-05,5.59629152121488e-05
-1.689177952357568e-05,5.309941843734123e-05,-1.726411392155569e-05,5.188647992326878e-05
-1.9452005290077068e-05,6.041692540748045e-05,-2.0315896108513698e-05,4.970300869899802e-05
-2.251663499919232e-05,6.628820119658485e-05,-2.140108153980691e-05,4.769481529365294e-05
-2.6646368496585637e-05,7.228696631500497e-05,-2.482217678334564e-05,4.4850443373434246e-05
-2.897297963500023e-05,8.164151222445071e-05,-2.9970849936944433e-05,4.265641837264411e-05
-2.7591580874286592e-05,8.703191269887611e-05,-3.3698273909976706e-05,4.516445551416837e-05
-2.392110400251113e-05,8.055876241996884e-05,-3.1628285796614364e-05,4.729930151370354e-05
-2.2245163563638926e-05,6.628857954638079e-05,-2.5530152925057337e-05,4.5585547923110425e-05
-2.2830054149380885e-05,4.615559009835124e-05,-1.9590906958910637e-05,4.334308687248267e-05
-2.3527438315795735e-05,1.665921627136413e-05,-1.553959555167239e-05,4.659108162741177e-05
-2.3960870748851448e-05,-9.254265933122952e-06,-1.1549755072337575e-05,5.3301631851354614e-05
-2.3219727154355496e-05,-2.1678288248949684e-05,-6.520830083900364e-06,5.7896952057490125e-05
-2.0684032278950326e-05,-3.68423861800693e-05,-6.732504971296294e-06,5.772694930783473e-05
-2.1672498405678198e-05,-5.9906335081905127e-05,-1.1900151548616122e-05,5.542105282074772e-05
-2.7393813070375472e-05,-5.8455931139178574e-05,-1.3268292605062015e-05,5.489378600032069e-05
-3.2628078770358115e-05,-1.9146922568324953e-05,-1.0812565960804932e-05,5.411090751294978e-05
-3.4886619687313214e-05,2.6680187147576362e-05,-1.3284405213198625e-05,5.339462586562149e-05
-3.649094651336782e-05,4.790182356373407e-05,-1.7907666915562004e-05,5.39763605047483e-05
-3.581869168556295e-05,5.2736548241227865e-05,-1.9760078430408612e-05,5.6412281992379576e-05
-3.206395558663644e-05,5.689177487511188e-05,-1.928445817611646e-05,5.9762882301583886e-05
-2.8616192139452323e-05,5.768058690591715e-05,-1.3722951734962407e-05,6.264572584768757e-05
-2.936300734290853e-05,5.1556784455897287e-05,-7.720109351794235e-06,6.710503657814115e-05
-3.110928810201585e-05,4.121046367799863e-05,-8.296582564071286e-06,6.921656313352287e-05
-2.947822940768674e-05,3.128927346551791e-05,-9.54886036197422e-06,6.590747216250747e-05
-2.9456423362717032e-05,1.8329395970795304e-05,-1.0602643669699319e-05,6.553984712809324e-05
-3.1073454010766e-05,2.6852446808334207e-06,-1.2672925549850333e-05,6.76104609738104e-05
-3.012138586200308e-05,-7.826135515642818e-06,-1.4071081750444137e-05,6.788770406274125e-05
-2.8352311346679926e-05,-6.666487024631351e-06,-1.1958863979089074e-05,6.803022552048787e-05
-2.933957875939086e-05,6.42893110125442e-06,-6.479893727373565e-06,7.012911373749375e-05
-3.1095274607650936e-05,1.6214262359426357e-05,-3.3308892852801364e-06,7.141570677049458e-05
-3.0425195291172713e-05,1.5108230400073808e-05,-6.06063485975028e-06,6.947734073037282e-05
-2.7270558348391205e-05,6.641802428930532e-06,-1.3436649169307202e-05,6.819421105319634e-05
-2.2933842046768405e-05,-2.425995546673221e-07,-1.88112971954979e-05,6.687003769911826e-05
-2.082820537907537e-05,8.775044761932804e-07,-1.6450821931357495e-05,6.570441473741084e-05
-2.2906400772626512e-05,4.143145361013012e-06,-9.713005056255497e-06,6.801880954299122e-05
-2.5766117687453516e-05,4.760046977025922e-06,-6.406326974683907e-06,7.011133129708469e-05
-2.7526479243533686e-05,1.8190648916061036e-05,-7.347093287535245e-06,6.751569890184328e-05
-2.9179986086091958e-05,5.879843592992984e-05,-6.520096576423384e-06,6.500571907963604e-05
-3.144763832096942e-05,0.00010907872638199478,7.423052466037916e-07,6.31329239695333e-05
-3.3595726563362405e-05,0.00013448412937577814,9.034989489009604e-06,5.606949343928136e-05
-3.654804822872393e-05,0.00011093922512372956,9.99547955871094e-06,4.866383824264631e-05
-3.794493750319816e-05,5.547474211198278e-05,4.337559857958695e-06,4.5421318645821884e-05
-3.432286757742986e-05,3.5723526252695592e-06,-3.185084551660111e-06,4.496349356486462e-05
-2.633650910865981e-05,-3.7135101592866704e-05,-4.435038590600016e-06,4.5793549361405894e-05
-2.0761031919391826e-05,-6.668950663879514e-05,6.839979391770612e-07,4.772481770487502e-05
-2.1422443751362152e-05,-7.943864329718053e-05,5.879401669517392e-06,5.053505446994677e-05
-2.403557846264448e-05,-6.452648813137785e-05,9.287228749599308e-06,5.359314309316687e-05
-2.6113641069969162e-05,-3.32871604769025e-05,6.9971488301234785e-06,6.015351755195297e-05
-2.8175027182442136e-05,2.0792795112356544e-06,1.9977774456947373e-07,6.274587940424681e-05
-2.8416599889169447e-05,5.563828381127678e-05,-6.198361461429158e-06,5.937981040915474e-05
-2.475019937264733e-05,9.577902528690174e-05,-8.213364708353765e-06,5.874958878848702e-05
-2.1993619157001376e-05,9.846159082371742e-05,-1.1256680409132969e-05,6.120580655988306e-05
-1.9340741346240975e-05,8.329286356456578e-05,-1.4346542229759507e-05,6.458115967689082e-05
-1.738223909342196e-05,6.772379856556654e-05,-1.360141050099628e-05,6.382146966643631e-05
-1.77455094672041e-05,6.004422903060913e-05,-1.0665125955711119e-05,5.80774103582371e-05
-2.0850435248576105e-05,6.216230394784361e-05,-6.361542091326555e-06,5.128889824845828e-05
-2.427729850751348e-05,6.714668415952474e-05,-5.7878273764799815e-06,4.696997348219156e-05
-2.5780671421671286e-05,6.689022120554e-05,-1.1314291441522073e-05,4.6561850467696786e-05
-2.401078018010594e-05,5.397239146986976e-05,-2.0077770386706106e-05,4.952160088578239e-05
-2.056489756796509e-05,3.502508479868993e-05,-2.4972561732283793e-05,5.160676664672792e-05
-2.1392501366790384e-05,1.805210195016116e-05,-2.2577221898245625e-05,5.2038769354112446e-05
-2.4261682483484037e-05,1.7390843254361243e-07,-1.497492576163495e-05,5.0050814024871215e-05
-2.6445130060892552e-05,-1.7600641513126902e-05,-1.0258413567498792e-05,4.566427014651708e-05
-2.905513611040078e-05,-2.323846274521202e-05,-8.569430974603165e-06,4.437691313796677e-05
-3.219698919565417e-05,-1.4973632460169028e-05,-3.98148040403612e-06,4.653242285712622e-05
-3.347283200128004e-05,-3.482005695332191e-06,2.2941007955523673e-06,4.7929112042766064e-05
-3.4526321542216465e-05,6.4953228502417915e-06,4.7747580538270995e-06,4.868822725256905e-05
-3.43017018167302e-05,4.7633184294682e-06,3.779221515287645e-06,5.003466139896773e-05
-3.216335971956141e-05,-5.960223461443093e-06,-9.890187584460364e-07,5.396559208747931e-05
-2.8017517252010293e-05,-8.79355411598226e-06,-7.568755336251343e-06,6.169157131807879e-05
-2.2758877094020136e-05,7.178306077548768e-06,-8.632087883597706e-06,6.894404214108363e-05
-1.6961814253591e-05,2.9071214157738723e-05,-6.004337137710536e-06,7.339013973250985e-05
-1.2278587746550329e-05,3.6985242331866175e-05,-6.601983386644861e-06,7.649733015568927e-05
-1.4686257600260433e-05,2.5747427571332082e-05,-1.074525516742142e-05,7.802490290487185e-05
-2.0476436475291848e-05,9.654680980020203e-06,-1.3876145203539636e-05,7.400500908261165e-05
-2.3093834897736087e-05,4.875746526522562e-06,-1.2870751561422367e-05,6.746611325070262e-05
-2.3087904992280528e-05,1.5701687516411766e-05,-1.0218719580734614e-05,6.431371002690867e-05
-2.2479045583168045e-05,3.424787792027928e-05,-1.233511466125492e-05,6.658212805632502e-05
-2.210864840890281e-05,4.8886398872127756e-05,-1.4978729268477764e-05,6.538946036016569e-05
-2.237200715171639e-05,5.6132808822439983e-05,-1.2873219020548277e-05,6.164996011648327e-05
-2.3751619664835744e-05,6.087595102144405e-05,-9.769540156412404e-06,6.329709140118212e-05
-2.2037151211407036e-05,6.574617145815864e-05,-1.3580554877989925e-05,6.88894433551468e-05
-1.9642311599454843e-05,6.611579738091677e-05,-2.0002842575195245e-05,7.508443377446383e-05
-2.1078709323774092e-05,4.4181426346767694e-05,-2.371334812778514e-05,7.600567914778367e-05
-2.5200817617587745e-05,-3.9158858271548524e-06,-2.3241227609105408e-05,7.05052589182742e-05
-2.9546485166065395e-05,-4.260621790308505e-05,-2.089069676003419e-05,6.52312082820572e-05
-3.1626048439648e-05,-3.945266507798806e-05,-1.875755697255954e-05,6.468863284680992e-05
-3.093049963354133e-05,-6.132286671345355e-06,-1.6845424397615716e-05,6.69571672915481e-05
-2.8398972062859684e-05,4.016764432890341e-05,-1.6495261661475524e-05,6.918104190845042e-05
-2.6189718482783064e-05,9.834594675339758e-05,-1.6398993466282263e-05,6.656836194451898e-05
-2.4350621970370412e-05,0.00014999289123807102,-1.497048378951149e-05,6.083097468945198e-05
-2.4014492737478577e-05,0.00016545028483960778,-9.366490303364117e-06,5.8613019064068794e-05
-2.504618896637112e-05,0.00013837576261721551,-2.0975660390831763e-06,5.9843267081305385e-05
-2.652826333360281e-05,8.996155520435423e-05,3.938713234674651e-06,6.130193651188165e-05
-2.4118942747008987e-05,4.442656063474715e-05,6.209232196852099e-06,6.090401075198315e-05
-2.0590599888237193e-05,1.6257394236163236e-05,5.013901045458624e-06,5.706002775696106e-05
-2.4980996386148036e-05,1.8804624914992019e-06,1.328609300799144e-06,5.296410381561145e-05
-3.3107273338828236e-05,-9.062256140168756e-06,-4.95021640745108e-06,5.542625513044186e-05
-3.739772000699304e-05,-1.2501531273301225e-05,-1.1661749340419192e-05,6.0653288528556004e-05
-3.2887179258977994e-05,-3.3998371691268403e-06,-1.7898459191201255e-05,5.856480493093841e-05
-2.5520221242913976e-05,4.3435652514745016e-06,-2.1710369765060022e-05,5.378318383009173e-05
-2.459092138451524e-05,-2.984572518016648e-07,-1.8867629478336312e-05,5.214377597440034e-05
-2.2962309230933897e-05,-1.3661002640219522e-06,-1.5217819964163937e-05,5.2798794058617204e-05
-2.0347863028291613e-05,8.215456546167843e-06,-1.3048442269791849e-05,5.6074051826726645e-05
-2.302618304383941e-05,1.3500266504706815e-05,-8.725482985028066e-06,6.129289977252483e-05
-2.756582216534298e-05,1.537642310722731e-05,-4.716329840448452e-06,6.433013913920149e-05
-2.5930085030267946e-05,1.838014395616483e-05,-4.063219876115909e-06,6.111650145612657e-05
-1.9673712813528255e-05,1.956849700945895e-05,-6.8711378844454885e-06,5.923519347561523e-05
-1.6043979485402815e-05,1.6294332453981042e-05,-1.0029146324086469e-05,6.458293501054868e-05
-1.8400041881250218e-05,1.4763797480554786e-05,-1.035812238114886e-05,6.879612192278728e-05
-2.1888701667194255e-05,1.686080031504389e-05,-7.317281415453181e-06,6.60520963720046e-05
-2.5537332476233132e-05,1.0639217180141713e-05,-4.683377483161166e-06,6.032613600837067e-05
-2.9140708647901192e-05,-1.2173782124591526e-05,-5.278740900394041e-06,5.880137541680597e-05
-2.890508585551288e-05,-3.616372850956395e-05,-6.351842330332147e-06,5.840704034199007e-05
-2.743175718933344e-05,-3.7539066397584975e-05,-5.504319233295973e-06,5.3589439630741253e-05
-2.8933045541634783e-05,-1.2030525795125868e-05,-3.4914039588329615e-06,4.980733137927018e-05
-3.2692587410565466e-05,2.3359263650490902e-05,-2.683639195311116e-06,5.117724140291102e-05
-3.4681859688134864e-05,5.1579165301518515e-05,-3.206320798199158e-06,5.374039028538391e-05
-3.512080365908332e-05,6.32840019534342e-05,-3.253432623750996e-06,5.465716094477102e-05
-3.413313606870361e-05,5.906864316784777e-05,-3.674183517432539e-06,5.4997464758343995e-05
-3.2077983632916585e-05,4.4284923205850646e-05,-3.950340214942116e-06,5.5026772315613925e-05
-2.8454478524508886e-05,2.3842081645852886e-05,-3.2174220905289985e-06,5.291022898745723e-05
-2.4041630240390077e-05,1.0670883966668043e-05,-2.3386278371617664e-06,5.220662205829285e-05
-2.458801827742718e-05,2.601513642730424e-06,-2.393083605056745e-06,5.704684372176416e-05
-3.0094190151430666e-05,-6.692378974548774e-06,-8.666668691148516e-06,5.819119905936532e-05
-3.250215377192944e-05,-4.237618213664973e-06,-1.6264979421976022e-05,5.548166882363148e-05
-3.28970309055876e-05,2.0319998839113396e-06,-1.4885220480209682e-05,5.186683847568929e-05
-3.1245657737599686e-05,4.413914123091445e-09,-1.4052755432203412e-05,5.121051799505949e-05
-2.7988371584797278e-05,-5.802521172881825e-06,-1.9541525034583174e-05,5.289101318339817e-05
-2.508930629119277e-05,-2.0677074644481763e-05,-2.2874002752359957e-05,5.452314144349657e-05
-2.385074731137138e-05,-2.5940185878425837e-05,-2.1398811441031285e-05,5.777467231382616e-05
-2.368846799072344e-05,1.0745235385911656e-06,-1.9493945728754625e-05,5.701602276531048e-05
-2.384442268521525e-05,5.101428541820496e-05,-1.7349297195323743e-05,5.5830663768574595e-05
-2.493753345333971e-05,8.746436651563272e-05,-1.6281279386021197e-05,5.277619857224636e-05
-2.3909549781819806e-05,8.977563993539661e-05,-1.77987567440141e-05,4.97693290526513e-05
-2.1591182303382084e-05,6.787275924580172e-05,-1.5760784663143568e-05,5.1179002184653655e-05
-2.0782852516276762e-05,3.9451366319553927e-05,-8.91999025043333e-06,5.420996603788808e-05
-2.2402626200346276e-05,1.625948425498791e-05,-2.57050373875245e-06,5.6098633649526164e-05
-2.5234632630599663e-05,3.5792036214843392e-06,-2.24917448576889e-06,5.751313074142672e-05
-2.6327379600843415e-05,-7.833368727006018e-07,-8.105565029836725e-06,5.9636193327605724e-05
-2.4477454644511454e-05,-3.787931063925498e-06,-1.4485118299489841e-05,5.965909440419637e-05
-2.4038561605266295e-05,-5.980654805171071e-06,-1.63487384270411e-05,5.657631845679134e-05
-2.4669174308655784e-05,-2.6949483071803115e-06,-1.3407077858573757e-05,5.389491707319394e-05
-2.4667922843946144e-05,7.76915385358734e-06,-1.0205401849816553e-05,5.322074139257893e-05
-2.5644405468483455e-05,1.5483799870708026e-05,-1.0049144293589052e-05,5.271520058158785e-05
-2.859139203792438e-05,1.8947592252516188e-05,-9.38365701586008e-06,5.05336320202332e-05
-3.096034561167471e-05,2.4294524337165058e-05,-6.480837782874005e-06,4.7502042434643954e-05
-2.922214480349794e-05,3.404244489502162e-05,-7.364225439232541e-06,4.852416896028444e-05
-2.2360194634529762e-05,4.546015406958759e-05,-9.661198419053108e-06,5.294350194162689e-05
-1.6802456229925156e-05,4.8259073082590476e-05,-7.426181127812015e-06,5.732179852202535e-05
-1.7960506738745607e-05,3.786066736211069e-05,-3.5625955661089392e-06,6.424591992981732e-05
-1.935156797117088e-05,2.4980305170174688e-05,-3.2623236165818525e-06,7.308671774808317e-05
-1.6457470337627456e-05,1.9113431335426867e-05,-8.739740223973058e-06,7.389025995507836e-05
-1.0936020771623589e-05,2.0295845388318412e-05,-1.426824110239977e-05,6.88920626998879e-05
-5.536444859899348e-06,1.8701952285482548e-05,-1.4855607332719956e-05,6.675419717794284e-05
-7.7268114182516e-06,9.481441338721197e-06,-1.3887474779039621e-05,6.982741615502164e-05
-1.594397508597467e-05,-6.78700325806858e-06,-1.3223025234765373e-05,7.130858284654096e-05
-2.046915324172005e-05,-2.6893212634604424e-05,-9.874394891085103e-06,7.023875514278188e-05
-2.048173155344557e-05,-4.831105616176501e-05,-7.697861292399466e-06,7.164771523093805e-05
-2.1155812646611594e-05,-7.030496635707095e-05,-8.143227205437142e-06,6.934814155101776e-05
-2.2862372134113684e-05,-7.748955249553546e-05,-6.002962891216157e-06,6.407034379662946e-05
-2.1864832888240926e-05,-6.423822196666151e-05,-3.5695200040208874e-06,6.30388458375819e-05
-2.112971014867071e-05,-3.8863170630065724e-05,-4.35757920058677e-06,6.388480687746778e-05
-2.297711580467876e-05,-4.391509719425812e-06,-7.64979085943196e-06,6.372851203195751e-05
-2.3543057977803983e-05,3.289223968749866e-05,-8.700021680851933e-06,6.277888314798474e-05
-2.2262214770307764e-05,6.255473999772221e-05,-4.883669589617057e-06,6.047560600563884e-05
-2.1461190044647083e-05,8.296092710224912e-05,5.001943463867065e-07,5.8766367146745324e-05
-1.824286846385803e-05,0.0001029806153383106,1.222243099618936e-06,5.872564361197874e-05
-1.430834618076915e-05,0.00012233256711624563,-1.6902231436688453e-06,5.8515361160971224e-05
-1.3328797649592161e-05,0.000131013264763169,-5.718653028452536e-06,5.806877015857026e-05
-1.607814738235902e-05,0.0001243140868609771,-1.3204286005930044e-05,5.712862184736878e-05
-2.1725430997321382e-05,0.00011164567695232108,-2.4740527805988677e-05,5.345785029930994e-05
-2.803815914376173e-05,9.946033242158592e-05,-3.129636024823412e-05,4.847763921134174e-05
-3.142578498227522e-05,8.053363126236945e-05,-2.654600393725559e-05,4.665736196329817e-05
-3.173227742081508e-05,6.0058548115193844e-05,-1.5285047993529588e-05,5.0256512622581795e-05
-3.4011714888038114e-05,5.510278788278811e-05,-3.890385869453894e-06,5.6900524214142933e-05
-3.772331547224894e-05,6.699499499518424e-05,1.3247215235878684e-07,6.069582741474733e-05
-3.780225233640522e-05,8.206631173379719e-05,-1.121635477829841e-06,6.0017278883606195e-05
-3.4414730180287734e-05,8.46709735924378e-05,2.455994717820431e-06,5.902404154767282e-05
-2.910637886088807e-05,7.98562541604042e-05,1.286561837332556e-05,6.100806058384478e-05
-2.316263817192521e-05,8.337196049978957e-05,1.9407048966968432e-05,6.523616320919245e-05
-1.8950042431242764e-05,8.688536036061123e-05,1.3999696420796681e-05,6.786946323700249e-05
-1.6613224943284877e-05,7.571977039333433e-05,-2.676311169125256e-06,6.801317067584023e-05
-1.901062933029607e-05,5.026563667342998e-05,-1.9427661754889414e-05,6.588370160898194e-05
-2.2311422071652487e-05,1.885988785943482e-05,-2.5843501134659164e-05,6.608894182136282e-05
-2.4227843823609874e-05,-6.442010544560617e-06,-2.270763616252225e-05,6.500946619780734e-05
-2.6105773940798827e-05,-1.6988136849249713e-05,-1.8583374185254797e-05,6.20053760940209e-05
-2.6505547793931328e-05,-2.3565953597426414e-05,-1.3389095329330303e-05,6.132632552180439e-05
-2.7741360099753365e-05,-5.1533330406527966e-05,-6.4796058723004535e-06,6.099031452322379e-05
-3.129741162410937e-05,-0.00011093056673416868,-5.582853646046715e-06,6.1376704252325e-05
-3.404263043194078e-05,-0.00015731404710095376,-8.022907422855496e-06,6.101107283029705e-05
-3.5561628465075046e-05,-0.000148030900163576,-7.235532848426374e-06,6.130331166787073e-05
-3.648591518867761e-05,-8.984439045889303e-05,-1.75514321654191e-06,6.207836122484878e-05
-3.472475509624928e-05,-1.389598492096411e-05,3.5763314372161403e-06,6.28937195870094e-05
-3.1151477742241696e-05,5.46580740774516e-05,4.241347141942242e-06,6.247064447961748e-05
-2.9203634767327458e-05,9.721254900796339e-05,-1.2991337143830606e-06,6.113920971984044e-05
-3.177411053911783e-05,0.00010745960753411055,-7.892845133028459e-06,6.0127120377728716e-05
-3.449674477451481e-05,0.00010169768938794732,-1.1431360690039583e-05,5.725874871131964e-05
-3.297738294349983e-05,9.44317871471867e-05,-1.4058467058930546e-05,5.331505963113159e-05
-3.082672265009023e-05,8.600283035775647e-05,-1.940879701578524e-05,5.016685827285983e-05
-3.229945286875591e-05,7.616959192091599e-05,-2.520157431717962e-05,4.837649248656817e-05
-3.321802068967372e-05,6.537347508128732e-05,-2.8849377486039884e-05,4.604936111718416e-05
-3.18162128678523e-05,4.789135346072726e-05,-3.373076833668165e-05,4.394049756228924e-05
-3.483312684693374e-05,2.7983116524410434e-05,-4.072361480211839e-05,4.54661094408948e-05
-4.160482785664499e-05,1.3487599971995223e-05,-4.123789767618291e-05,4.782763062394224e-05
-4.339654333307408e-05,9.996836070058635e-07,-2.9536637157434598e-05,4.780184099217877e-05
-4.0732957131695e-05,-5.21282117915689e-06,-1.8318401998840272e-05,5.1305516535649076e-05
-3.764976281672716e-05,8.070277544902638e-06,-1.763036379998084e-05,5.2644569223048165e-05
-3.334187567816116e-05,1.8349430320085958e-05,-2.020567626459524e-05,4.7379478928633034e-05
-3.666618067654781e-05,1.0262078831146937e-05,-1.6564563338761218e-05,4.604557761922479e-05
-4.017120227217674e-05,9.846813554759137e-06,-7.766984708723612e-06,4.9095302529167384e-05
-3.440640648477711e-05,2.633832446008455e-05,7.936023962429317e-07,5.352324296836741e-05
-2.5161036319332197e-05,3.5068213037448004e-05,2.4973276140372036e-06,5.3318115533329546e-05
-1.7122833014582284e-05,2.0458275685086846e-05,4.285604688902822e-07,4.890496711595915e-05
-1.612227970326785e-05,2.3231962131831096e-06,-1.2332510550550069e-06,4.868730320595205e-05
-2.031842086580582e-05,4.025940597784938e-06,-3.134844746455201e-06,5.3342620958574116e-05
-2.459826646372676e-05,1.241842892341083e-05,-6.382576430041809e-06,5.5848264310043305e-05
-2.3428063286701217e-05,1.0912612196989357e-05,-9.780845175555442e-06,5.456013241200708e-05
-1.92468251043465e-05,-4.347581580077531e-06,-1.1740062291210052e-05,5.3543055400950834e-05
-1.690727731329389e-05,-2.518526162020862e-05,-1.2144752872700337e-05,5.3704719903180376e-05
-1.9221106413169764e-05,-3.686772470246069e-05,-1.0363190085627139e-05,5.268932363833301e-05
-2.400645644229371e-05,-3.39356811309699e-05,-7.686221579206176e-06,5.010240784031339e-05
-2.711423258006107e-05,-2.2880163669469766e-05,-6.151566594780888e-06,4.9943824706133455e-05
-2.5635314159444533e-05,-1.2805220649170224e-05,-8.261949005827773e-06,5.382991730584763e-05
-2.225765274488367e-05,-6.033464615029516e-06,-1.1861599887197372e-05,5.823199899168685e-05
-2.1565316274063662e-05,-1.0812947692784292e-07,-1.2030722245981451e-05,6.116498843766749e-05
-2.0867379134870134e-05,7.052079126879107e-06,-1.0210205800831318e-05,6.247611599974334e-05
-1.779948615876492e-05,7.437528438458685e-06,-1.1932656889257487e-05,6.125777144916356e-05
-1.559852717036847e-05,-3.11911094286188e-06,-1.3951881555840373e-05,6.046435737516731e-05
-1.693194280960597e-05,-1.2981040526938159e-05,-1.2148157111369073e-05,6.0336260503390804e-05
-1.9522196453181095e-05,-5.509386483026901e-06,-8.737180905882269e-06,6.0240327002247795e-05
-1.992537363548763e-05,2.417332143522799e-05,-5.655205768562155e-06,6.066593778086826e-05
-1.8554746930021793e-05,6.694522016914561e-05,-2.403903636150062e-06,6.11456052865833e-05
-2.0568597392411903e-05,9.537214646115899e-05,-7.414545279971207e-07,6.074556222301908e-05
-2.532880171202123e-05,9.71792105701752e-05,1.9697090465342626e-06,5.9049569244962186e-05
-2.573605343059171e-05,7.987875142134726e-05,5.163381047168514e-06,5.7664972700877115e-05
-1.9151068045175634e-05,5.83659129915759e-05,1.9798503672063816e-06,5.863204205525108e-05
-1.7003163520712405e-05,4.680718120653182e-05,-6.641239451710135e-06,5.852318281540647e-05
-2.1250552890705876e-05,4.418713797349483e-05,-1.1537201316969004e-05,5.785731991636567e-05
-2.57909377978649e-05,3.93166410503909e-05,-1.2006051292701159e-05,5.6576725910417736e-05
-2.852818761311937e-05,3.273527545388788e-05,-1.282286575587932e-05,5.369316568248905e-05
-3.1382231099996716e-05,4.444953810889274e-05,-1.2672880984609947e-05,5.2187515393598005e-05
-3.311142063466832e-05,8.725595398573205e-05,-8.541515853721648e-06,5.489627073984593e-05
-3.2944295526249334e-05,0.00013100264186505228,-5.990645604470046e-06,5.8638273912947625e-05
-3.170947820763104e-05,0.00013607757864519954,-8.399067155551165e-06,5.6804390624165535e-05
-2.9744089260930195e-05,0.00010817180009325966,-1.0321316949557513e-05,5.2778777899220586e-05
-3.0091065127635375e-05,6.619622581638396e-05,-9.894371032714844e-06,5.2650124416686594e-05
-3.096414002357051e-05,2.066492561425548e-05,-8.609638825873844e-06,5.4798296332592145e-05
-3.155418744427152e-05,-2.287085044372361e-05,-9.394079825142398e-06,5.4461277613881975e-05
-3.221410952392034e-05,-5.496558515005745e-05,-7.903703590272926e-06,5.5073105613701046e-05
-3.1285660952562466e-05,-6.220339855644852e-05,-3.5465741348161828e-06,6.261739326873794e-05
-2.547562326071784e-05,-4.4307977077551186e-05,-8.12201619737607e-07,7.229534821817651e-05
-1.769727714417968e-05,-2.118465636158362e-05,-3.571619345166255e-06,7.60044131311588e-05
-1.3780625522485934e-05,-1.2954696103406604e-05,-9.042379133461509e-06,7.39227543817833e-05
-1.602503289177548e-05,-1.7211184967891313e-05,-1.1005771739291959e-05,7.194631325546652e-05
-1.9250968762207776e-05,-1.3279421182232909e-05,-1.1041161087632645e-05,7.098620699252933e-05
-2.081080492644105e-05,2.864953557946137e-06,-1.5011224604677409e-05,6.774489884264767e-05
-2.4833823772496544e-05,6.273571216297569e-06,-2.3768814571667463e-05,6.439450953621417e-05
-3.0170995160005987e-05,-8.411262570007239e-06,-3.044216282432899e-05,6.242098606890067e-05
-3.241538070142269e-05,-1.9725264792214148e-05,-2.8577493139891885e-05,6.195540481712669e-05
-3.112656486337073e-05,-8.013568731257692e-06,-2.2251340851653367e-05,6.379382830346003e-05
-2.493865213182289e-05,1.691814759396948e-05,-1.686702307779342e-05,6.64016479277052e-05
-2.019771454797592e-05,2.532272628741339e-05,-1.55338038894115e-05,6.597626634174958e-05
-2.0505649445112795e-05,1.8951812307932414e-05,-1.6545161997782998e-05,6.194343586685136e-05
-2.0432835299288854e-05,1.6334921383531764e-05,-1.2233525922056288e-05,5.843174585606903e-05
-2.075603697448969e-05,1.4239231859392021e-05,-5.554723429668229e-06,6.152410060167313e-05
-2.198674701503478e-05,-3.7525455809372943e-06,-4.469241503102239e-06,6.408801709767431e-05
-2.6403502488392405e-05,-3.161790664307773e-05,-7.115843800420407e-06,6.367209425661713e-05
-3.250832742196508e-05,-4.2532461520750076e-05,-9.77336458163336e-06,6.373783980961889e-05
-3.4687836887314916e-05,-2.9398788683465682e-05,-1.3739578207605518e-05,6.248030695132911e-05
-3.410505087231286e-05,-6.622871296713129e-06,-1.3940944882051554e-05,5.9879828768316656e-05
-3.250644658692181e-05,1.9290930140414275e-05,-1.0319703505956568e-05,5.9691221395041794e-05
-3.0101762604317628e-05,4.447527680895291e-05,-7.14535235601943e-06,6.285798008320853e-05
-2.7816657166113146e-05,6.089615271775983e-05,-7.991864549694583e-06,6.043836037861183e-05
-2.569462958490476e-05,6.71847301418893e-05,-1.0337078492739238e-05,5.537510878639296e-05
-2.576330371084623e-05,6.845316966064274e-05,-9.951350875780918e-06,5.2027389756403863e-05
-2.711813067435287e-05,7.068424019962549e-05,-8.588655873609241e-06,5.1520186389097944e-05
-2.9350447221077047e-05,7.658086542505771e-05,-9.587937711330596e-06,5.3076782933203503e-05
-3.231082155252807e-05,8.104785229079425e-05,-1.1709636964951642e-05,5.555949610425159e-05
-3.3330736187053844e-05,7.626054139109328e-05,-1.2005093594780192e-05,6.00550883973483e-05
-3.11833355226554e-05,6.0184938774909824e-05,-9.826250789046753e-06,6.357475649565458e-05
-2.9637760235345922e-05,3.879327414324507e-05,-5.959261670795968e-06,6.169484549900517e-05
-2.7891584977624007e-05,2.7233554646954872e-05,-5.688322289643111e-06,5.794953176518902e-05
-2.477796806488186e-05,3.033938082808163e-05,-6.481033324234886e-06,5.6480381317669526e-05
-2.2557225747732446e-05,3.815324816969223e-05,-5.038951258029556e-06,5.4981592256808653e-05
-2.1375535652623512e-05,3.811738861259073e-05,-6.0863353610329796e-06,5.3186835430096835e-05
-2.406518251518719e-05,3.929623926524073e-05,-6.483704964921344e-06,5.0721711886581033e-05
-2.70670007012086e-05,5.10980753460899e-05,-4.1024013626156375e-06,4.7553741751471534e-05
-3.0169316232786514e-05,6.317931547528133e-05,-2.531323161747423e-06,4.742474266095087e-05
-3.169947012793273e-05,7.154046761570498e-05,-2.1947910227027023e-06,4.7882942453725263e-05
-2.9272765459609218e-05,6.685005791950971e-05,-3.2782863854663447e-06,4.615483703673817e-05
-2.7446187232271768e-05,5.3195504733594134e-05,-5.138515916769393e-06,4.674234878621064e-05
-2.5450617613387294e-05,4.624785287887789e-05,-7.88341731094988e-06,4.954752148478292e-05
-2.256344487250317e-05,4.6248602302512154e-05,-9.83834524959093e-06,5.2653140301117674e-05
-2.0852281522820704e-05,4.4539745431393385e-05,-1.0736520380305592e-05,5.633762702927925e-05
-2.407105603197124e-05,3.576245944714174e-05,-8.340453860000707e-06,5.860423334524967e-05
-3.1154257158050314e-05,2.6698713554651476e-05,-7.100622951838886e-06,5.659314410877414e-05
-3.397282853256911e-05,3.199938146281056e-05,-9.637908988224808e-06,5.516090095625259e-05
-2.8423017283785157e-05,4.929702845402062e-05,-1.360531405225629e-05,5.6887314713094383e-05
-2.092668364639394e-05,5.7749770348891616e-05,-1.6236521332757547e-05,5.727409734390676e-05
-2.0292585759307258e-05,4.48111750301905e-05,-1.4124091649136972e-05,5.391745435190387e-05
-2.3155924282036722e-05,1.8543154510552995e-05,-1.0618866326694842e-05,5.217821671976708e-05
-2.4798966478556395e-05,-2.2910423069788521e-07,-9.026399311551359e-06,5.2676554332720116e-05
-2.5542360162944533e-05,-7.808560440025758e-06,-9.09596656128997e-06,5.2721923566423357e-05
-2.6517904188949615e-05,-1.1952751265198458e-05,-8.685703505761921e-06,5.3866649977862835e-05
-2.5369530703756027e-05,-1.629223334020935e-05,-6.839421985205263e-06,5.806801709695719e-05
-2.1177147573325783e-05,-1.7435284462408163e-05,-4.8329193305107765e-06,6.35362885077484e-05
-2.0211145965731703e-05,-1.512918242951855e-05,-8.938689461501781e-06,6.542735354742035e-05
-2.3066284484229982e-05,-8.725581210455857e-06,-1.8207485481980257e-05,6.253437459236011e-05
-2.4373463020310737e-05,1.3426289342532982e-06,-2.2406527932616882e-05,5.778132253908552e-05
-2.3570262783323415e-05,5.17650641995715e-06,-1.9420202079345472e-05,5.4786833061371e-05
-2.1801986804348417e-05,-2.9777157806165633e-07,-1.9008713934454136e-05,5.749788033426739e-05
-2.070666778308805e-05,-6.6008346948365215e-06,-2.2195306883077137e-05,6.216824112925678e-05
-2.2706366507918574e-05,-1.0336537343391683e-05,-2.0980833141948096e-05,6.317667430266738e-05
-2.5108007321250625e-05,-6.103688974690158e-06,-1.4431117961066775e-05,6.118164310464635e-05
-2.5530038328724913e-05,9.083821169042494e-06,-6.305099304881878e-06,5.810958464280702e-05
-2.4663404474267736e-05,3.0884537409292534e-05,-2.431953816994792e-06,5.583029269473627e-05
-2.228809353255201e-05,5.9536199842114e-05,-5.060487183072837e-06,5.7514178479323164e-05
-2.0594801753759384e-05,7.804114284226671e-05,-8.306780728162266e-06,6.353510252665728e-05
-2.1263243979774415e-05,7.445090886903927e-05,-1.0465733794262633e-05,6.678242061752826e-05
-2.1755706256954e-05,5.879260424990207e-05,-1.4994056982686743e-05,6.807393947383389e-05
-1.9806391719612293e-05,4.486702891881578e-05,-1.8484646716387942e-05,6.675974145764485e-05
-1.6695337762939744e-05,3.723761983565055e-05,-1.3777492313238326e-05,6.284014671109617e-05
-1.4564204320777208e-05,3.309703970444389e-05,-6.085970198910218e-06,6.012053927406669e-05
-1.5209050616249442e-05,3.0512799639836885e-05,-5.452881396195153e-06,6.03961234446615e-05
-1.9140448785037734e-05,1.9553683159756474e-05,-9.137746019405313e-06,6.165866216178983e-05
-2.1810204998473637e-05,-9.05932847672375e-06,-1.2137473277107347e-05,5.991652142256498e-05
-2.2842121325084008e-05,-4.274309685570188e-05,-1.596322181285359e-05,5.4457261285278946e-05
-2.3441822122549638e-05,-5.5427884944947436e-05,-2.1834104700246826e-05,5.0340484449407086e-05
-2.2597607312491164e-05,-3.8455815229099244e-05,-2.540794957894832e-05,4.916365651297383e-05
-2.175454210373573e-05,-1.1803042070823722e-05,-2.459706229274161e-05,5.109988705953583e-05
-2.5159766664728522e-05,4.9463537834526505e-06,-2.232863880635705e-05,5.44395406905096e-05
-2.994072565343231e-05,1.2431456525519025e-05,-2.0289307940402068e-05,5.539308040169999e-05
-3.176661266479641e-05,1.58451875904575e-05,-1.4600809663534164e-05,5.396600681706332e-05
-3.058446236536838e-05,1.1786075447162148e-05,-7.193181772890966e-06,5.0271850341232494e-05
-2.7370648240321316e-05,4.289253865863429e-06,-6.4993482737918384e-06,5.015765054849908e-05
-2.5924691726686433e-05,-3.8070922414590314e-07,-1.0377534636063501e-05,5.571785368374549e-05
-2.6393759981147014e-05,-7.230233336485981e-07,-8.447468644590117e-06,6.184209632920101e-05
-2.546878567954991e-05,8.044461537792813e-06,-2.2240228645387106e-06,6.396909157047048e-05
-2.1920577637501992e-05,2.188435428251978e-05,7.010920057837211e-07,6.230355211300775e-05
-1.6850790416356176e-05,2.211609171354212e-05,1.8581971517050988e-06,5.664540367433801e-05
-1.6101028450066224e-05,1.7527761883684434e-05,8.997466238724883e-07,5.089449041406624e-05
-1.9045366570935585e-05,3.5275486879982054e-05,-2.6806865207618102e-06,5.165382390259765e-05
-1.948608951352071e-05,6.529786332976073e-05,-1.022370361170033e-05,5.5405696912202984e-05
-1.9978224372607656e-05,8.713729039300233e-05,-1.743177926982753e-05,5.585591497947462e-05
-2.1761086827609688e-05,9.176529420074075e-05,-1.6953919839579612e-05,5.46014380233828e-05
-2.2515427190228365e-05,8.201745367841795e-05,-1.5224341041175649e-05,5.507327659870498e-05
-2.0550416593323462e-05,6.87630963511765e-05,-1.801245889510028e-05,5.855758718098514e-05
-1.7212089005624875e-05,5.5509633966721594e-05,-2.0015128029626794e-05,6.37596967862919e-05
-1.790981514204759e-05,5.105933087179437e-05,-1.981828609132208e-05,6.862814916530624e-05
-2.323308217455633e-05,6.571081030415371e-05,-2.1090336304041557e-05,6.903699249960482e-05
-2.8446818760130554e-05,8.508560131303966e-05,-2.261729423480574e-05,6.683995889034122e-05
-3.319281313451938e-05,8.686901128385216e-05,-2.137036426574923e-05,6.510876846732572e-05
-3.543931234162301e-05,5.87227514188271e-05,-1.529457586002536e-05,6.487520295195282e-05
-3.5089051380055025e-05,1.781506034603808e-05,-3.688631977638579e-06,6.828552432125434e-05
-3.384619049029425e-05,-1.0951378499157727e-05,8.546131539333146e-06,7.16714930604212e-05
-3.151056807837449e-05,-2.696390583878383e-05,1.1493555575725622e-05,7.038663898129016e-05
-2.8964775992790237e-05,-3.627780097303912e-05,5.588100066233892e-06,6.496883725048974e-05
-2.8668488084804267e-05,-3.5238535929238424e-05,1.8154847793994122e-06,5.9482881624717265e-05
-3.0143313779262826e-05,-2.6419209461892024e-05,5.946147211943753e-06,5.514879376278259e-05
-3.0269753551692702e-05,-2.1975034542265348e-05,1.1326677849865519e-05,5.608671563095413e-05
-3.0337434509419836e-05,-2.1011155695305206e-05,8.480630640406162e-06,6.112730625318363e-05
-3.14713797706645e-05,-1.0004192517953925e-05,-3.9612177715753205e-06,6.475863483501598e-05
-3.3441854611737654e-05,1.3804587979393546e-05,-1.614938082639128e-05,6.505748751806095e-05
-3.371764614712447e-05,3.480910527287051e-05,-2.1143794583622366e-05,6.301805115072057e-05
-3.206148903700523e-05,4.246394382789731e-05,-2.2286909370450303e-05,6.33535091765225e-05
-3.2924868719419464e-05,4.007236930192448e-05,-2.2271391571848653e-05,6.407013279385865e-05
-3.772340642171912e-05,3.714962804224342e-05,-1.8313678083359264e-05,6.295056664384902e-05
-4.2162457248196006e-05,3.986209776485339e-05,-1.1423971045587678e-05,6.387151370290667e-05
-4.0123002690961584e-05,4.642361818696372e-05,-8.480622454953846e-06,6.519086309708655e-05
-3.502691106405109e-05,4.300558430259116e-05,-1.4129059309198055e-05,6.479417061200365e-05
-3.597722388803959e-05,3.0074468668317422e-05,-2.6391990104457363e-05,5.8416164392838255e-05
-3.849091081065126e-05,1.4268157428887207e-05,-3.033778557437472e-05,5.23286871612072e-05
-3.5552497138269246e-05,1.6511698959220666e-06,-2.743220466072671e-05,5.571308429352939e-05
-3.1527175451628864e-05,-6.758714789611986e-06,-2.616302481328603e-05,5.926005178480409e-05
-2.9123919375706464e-05,-1.2832363609049935e-05,-2.129644235537853e-05,6.105847569415346e-05
-2.4644350560265593e-05,-1.5550445823464543e-05,-1.4746176930202637e-05,5.997813059366308e-05
-1.6165295164682902e-05,-2.2670517864753492e-05,-1.0883467439271044e-05,5.467355003929697e-05
-1.028518545354018e-05,-3.0458100809482858e-05,-7.359688879660098e-06,4.881541826762259e-05
-1.0768488209578209e-05,-2.689868415473029e-05,-2.0675233258771186e-07,4.732283923658542e-05
-1.4299714166554622e-05,-1.1033888767997269e-05,9.975799002859276e-06,5.014177077100612e-05
-1.7467897123424336e-05,8.331789103976917e-06,1.4486043255601544e-05,5.263711136649363e-05
-1.94604344869731e-05,2.5023584385053255e-05,1.0611634024826344e-05,5.342057556845248e-05
-2.1944244508631527e-05,3.728615047293715e-05,6.9212628659443e-06,5.415906707639806e-05
-2.381860394962132e-05,4.5527744077844545e-05,8.253733540186659e-06,5.744710142607801e-05
-2.523528746678494e-05,5.0424569053575397e-05,1.0621977708069608e-05,6.025251423125155e-05
-2.6957817681250162e-05,5.170898657524958e-05,1.0852566447283607e-05,5.929441613261588e-05
-2.8296537493588403e-05,4.937527410220355e-05,1.0069989912153687e-05,5.796167170046829e-05
-2.8091060812585056e-05,4.8633755795890465e-05,8.414359399466775e-06,5.8410249039297923e-05
-2.6308409360353835e-05,5.025922291679308e-05,6.1587957134179305e-06,5.659396992996335e-05
-2.370581751165446e-05,4.726741462945938e-05,4.054960299981758e-06,5.386629709391855e-05
-2.2760663341614418e-05,3.6885270674247295e-05,1.051663844009454e-06,5.4774693126091734e-05
-2.4011038476601243e-05,3.0195027648005635e-05,-2.3342904569290113e-06,5.7496337831253186e-05
-2.427037907182239e-05,3.4571439755382016e-05,-3.2928273867582902e-06,6.021640365361236e-05
-2.4021017452469096e-05,4.031018397654407e-05,-5.6173525990743656e-06,6.505386409116909e-05
-2.7412641429691575e-05,4.337910286267288e-05,-9.213584235112648e-06,6.831155769759789e-05
-2.8824790206272155e-05,5.1617080316646025e-05,-1.2142844752816018e-05,7.120640657376498e-05
-2.7180363758816384e-05,6.0261467297095805e-05,-1.625092227186542e-05,7.093260501278564e-05
-2.937681711046025e-05,5.717599924537353e-05,-2.1066700355731882e-05,6.351387855829671e-05
-3.112545164185576e-05,4.21841541538015e-05,-2.387682252447121e-05,5.6168119044741616e-05
-3.1153744203038514e-05,2.2333699234877713e-05,-1.9514187442837283e-05,5.170055010239594e-05
-2.893423879868351e-05,1.1608120985329151e-05,-1.4696294783789199e-05,5.3289069910533726e-05
-2.355514698137995e-05,1.2421388419170398e-05,-1.471220821258612e-05,6.054095138097182e-05
-1.67843190865824e-05,2.1408410248113796e-05,-1.4892256331222598e-05,6.354538345476612e-05
-1.2399316801747773e-05,3.6522396840155125e-05,-1.539544427942019e-05,6.0279257013462484e-05
-1.4368857591762207e-05,4.901037391391583e-05,-1.7880869563668966e-05,5.598270581685938e-05
-1.941203845490236e-05,5.479051833390258e-05,-2.143063466064632e-05,5.185079135117121e-05
-2.3615386453457177e-05,5.072525891591795e-05,-2.1567358999163844e-05,4.6831584768369794e-05
-2.4646587917231955e-05,3.649825885077007e-05,-2.0361074348329566e-05,4.563697075354867e-05
-2.5269953766837716e-05,1.0841176845133305e-05,-1.770805465639569e-05,5.0825921789510176e-05
-2.658141420397442e-05,-2.09024492505705e-05,-1.098655047826469e-05,5.682436312781647e-05
-2.7948433853453025e-05,-3.2078321964945644e-05,-2.5035126327566104e-06,5.684272400685586e-05
-3.057294088648632e-05,-7.734089194855187e-06,1.855276309470355e-06,5.393430546973832e-05
-3.396495958440937e-05,2.3655939003219828e-05,8.653279905956879e-07,5.190579031477682e-05
-3.5524179111234844e-05,3.493879557936452e-05,-1.1935625252590398e-06,5.098210749565624e-05
-3.5082022804999724e-05,3.4234999475302175e-05,-1.7989339085033862e-06,5.15647443535272e-05
-3.5859568015439436e-05,3.363343785167672e-05,-6.581130378435773e-07,5.2008861530339345e-05
-3.4763841540552676e-05,3.1168390705715865e-05,1.1017663581469606e-07,5.53433237655554e-05
-3.10540126520209e-05,2.282530113006942e-05,-1.7454462977184448e-06,6.2457678723149e-05
-2.7234264052822255e-05,1.4346499483508524e-05,-4.707992957264651e-06,6.73128743073903e-05
-2.3056225472828373e-05,-1.7263113250010065e-06,-9.134679203270935e-06,6.693370232824236e-05
-1.957413951458875e-05,-3.200139326509088e-05,-1.5382513083750382e-05,6.665792898274958e-05
-1.782886465662159e-05,-5.0202237616758794e-05,-1.4557128451997414e-05,6.629736162722111e-05
-1.3447151104628574e-05,-3.842283695121296e-05,-5.957564098935109e-06,6.829715130152181e-05
-7.477453436877113e-06,-3.178837687300984e-06,-9.351347785013786e-07,7.367547368630767e-05
-4.226677901897347e-06,3.685455158120021e-05,-3.867662144330097e-06,7.443880167556927e-05
-4.006974904768867e-06,6.0352522268658504e-05,-7.09930145603721e-06,7.065219688229263e-05
-6.537713488796726e-06,6.403366569429636e-05,-6.402785402315203e-06,6.789887993363664e-05
-9.675763976702001e-06,5.8132471167482436e-05,-4.019636435259599e-06,6.862432201160118e-05
-1.3635382856591605e-05,5.372046143747866e-05,-6.675368240394164e-06,7.019342592684552e-05
-1.5071948837430682e-05,5.418369619292207e-05,-1.2319963389018085e-05,6.747645238647237e-05
-1.4633294085797388e-05,5.252724440651946e-05,-1.6192583643714897e-05,6.255495827645063e-05
-1.619806425878778e-05,4.528067438513972e-05,-1.732325108605437e-05,5.880133176106028e-05
-1.9863253328367136e-05,3.5710385418497026e-05,-1.5817944586160593e-05,5.8057481510331854e-05
-2.222712828370277e-05,3.63806466339156e-05,-1.2855137356382329e-05,6.019420470693149e-05
-2.2436719518736936e-05,5.0641225243452936e-05,-9.962896911019925e-06,6.140318873804063e-05
-2.5672317860880867e-05,6.383255822584033e-05,-7.066901162033901e-06,6.026228948030621e-05
-3.1243420380633324e-05,6.832418876001611e-05,-6.054439381841803e-06,5.653866901411675e-05
-3.3160198654513806e-05,6.438760465243831e-05,-8.572653314331546e-06,5.3198418754618615e-05
-3.2154890504898503e-05,5.192297248868272e-05,-1.237424021383049e-05,5.32431949977763e-05
-3.3899683330673724e-05,2.7764162950916216e-05,-1.4639703294960782e-05,5.4572396038565785e-05
-3.7050089304102585e-05,6.562010526067752e-07,-1.2703171705652494e-05,5.456853978103027e-05
-3.6660119803855196e-05,-1.132014858740149e-05,-9.977384252124466e-06,5.279264587443322e-05
-3.164733061566949e-05,-1.8234271692563198e-06,-1.132104080170393e-05,5.0115610065404326e-05
-2.7234638764639385e-05,7.861715857870877e-06,-1.739095569064375e-05,4.72392603114713e-05
-2.6536612494965084e-05,4.958508270647144e-06,-2.3827344193705358e-05,4.520964284893125e-05
-2.7076659534941427e-05,-6.627792572544422e-06,-3.007722261827439e-05,4.704488310380839e-05
-2.6312352929380722e-05,-1.5044452993606683e-05,-3.814033334492706e-05,4.825223732041195e-05
-2.6505167625145987e-05,-6.4071896304085385e-06,-4.110940790269524e-05,4.801044269697741e-05
-2.8092825232306495e-05,1.548958789499011e-05,-3.427416959311813e-05,5.1113278459524736e-05
-2.7426722226664424e-05,4.2136751289945096e-05,-2.1770787498098798e-05,5.358926500775851e-05
-2.5887957235681824e-05,5.965630407445133e-05,-1.2746007996611297e-05,5.353397500584833e-05
-2.7190497348783538e-05,6.75328919896856e-05,-1.1366787475708406e-05,5.193154720473103e-05
-2.692736961762421e-05,6.492688407888636e-05,-1.0943483175651636e-05,5.238097583060153e-05
-2.628431684570387e-05,5.2713083277922124e-05,-1.1423309842939489e-05,5.507555033545941e-05
-3.0228833566070534e-05,4.0482173062628135e-05,-9.733226761454716e-06,5.653021435136907e-05
-3.6000157706439495e-05,2.385632433288265e-05,-8.020107088668738e-06,5.5386168241966516e-05
-3.816709067905322e-05,7.162789643189171e-06,-9.903690624923911e-06,5.2464729378698394e-05
-3.6527701013255864e-05,-3.975030722358497e-07,-1.6247970052063465e-05,4.785979399457574e-05
-3.46511515090242e-05,3.946858839753986e-07,-2.2237596567720175e-05,4.373615956865251e-05
-3.3617077860981226e-05,3.999466571258381e-06,-2.0481744286371395e-05,4.4145897845737636e-05
-3.4699158277362585e-05,4.60037244920386e-06,-1.2298141882638447e-05,4.6005701733520254e-05
-3.502074468997307e-05,-2.043270228568872e-07,-2.7839012091135373e-06,4.572135003400035e-05
-3.5555487556848675e-05,-9.909454092849046e-06,3.6901869862049352e-06,4.700696445070207e-05
-3.635458051576279e-05,-1.4924962670193054e-05,6.144297458376968e-06,5.332343062036671e-05
-3.482368265395053e-05,-2.783364379865816e-06,4.782642463396769e-06,6.102490806370042e-05
-3.0485176466754638e-05,3.232091330573894e-05,4.2675087570387404e-06,6.719044904457405e-05
-2.7043579393648542e-05,6.891616794746369e-05,6.178011062729638e-06,6.93626279826276e-05
-2.598834180389531e-05,7.678988913539797e-05,7.679602276766673e-06,6.928013317519799e-05
-2.646038046805188e-05,5.641441748593934e-05,6.249970283533912e-06,6.94474729243666e-05
-2.8618465876206756e-05,3.14226454065647e-05,2.1420751181722153e-06,6.885259062983096e-05
-3.187897164025344e-05,1.304289708059514e-05,-2.2107938093540724e-06,6.67351414449513e-05
-3.0333829272422008e-05,2.331997166038491e-06,-1.885701976789278e-06,6.628005212405697e-05
-2.4421524358331226e-05,6.258707685447007e-07,1.5209010371108889e-06,6.473223766079172e-05
-2.193400177930016e-05,6.39664960999653e-07,4.938672191201476e-06,6.147307431092486e-05
-1.9256334780948237e-05,3.53933955921093e-07,8.220299605454784e-06,6.162998761283234e-05
-1.653708386584185e-05,4.059671027789591e-06,6.661616225756006e-06,6.469788786489516e-05
-1.5224373782984912e-05,7.25627614883706e-06,3.554283409812342e-07,6.318854138953611e-05
-1.6390018572565168e-05,7.982591341715306e-06,-6.394900992745534e-06,5.93235636188183e-05
-1.9714501831913367e-05,8.153965609380975e-06,-1.1400804396544117e-05,5.8533987612463534e-05
-2.2303520381683484e-05,1.0219849173154216e-05,-1.6077776308520697e-05,5.3972449677530676e-05
-2.419566772005055e-05,2.1789221136714332e-05,-2.3361328203463927e-05,5.107650940772146e-05
-2.405859595455695e-05,3.272618050687015e-05,-2.7838927053380758e-05,4.955251279170625e-05
-2.3318096282309853e-05,3.1889496312942356e-05,-2.6976100343745202e-05,4.773232285515405e-05
-2.3607643015566282e-05,2.2992106096353382e-05,-2.5154458853648975e-05,5.035445428802632e-05
-2.2235564756556414e-05,1.6440961189800873e-05,-2.4133330953191034e-05,5.5872646044008434e-05
-1.9488974430714734e-05,1.7395517716067843e-05,-1.7598546037334017e-05,5.9329471696401015e-05
-2.1732081222580746e-05,2.547402800701093e-05,-1.0341203051211778e-05,5.987707481835969e-05
-2.6851050279219635e-05,3.469879084150307e-05,-9.953974767995533e-06,5.791271905764006e-05
-2.8659213057835586e-05,3.965455471188761e-05,-1.5134500245039817e-05,5.4699550673831254e-05
-2.8576701879501343e-05,3.709896554937586e-05,-1.9539284039638005e-05,5.552971924771555e-05
-2.8360578653519042e-05,3.290887616458349e-05,-1.7708618543110788e-05,5.8810546761378646e-05
-2.6701873139245436e-05,3.2935000490397215e-05,-1.0557698260527104e-05,5.950898048467934e-05
-2.3661817976972088e-05,3.4232147299917415e-05,-4.691993126471061e-06,5.875135320820846e-05
-2.2908736355020665e-05,3.128069874946959e-05,-5.233773663348984e-06,5.9608999436022714e-05
-2.435703390801791e-05,2.562877125455998e-05,-1.006844740913948e-05,5.892647095606662e-05
-2.6629593776306137e-05,2.560554821684491e-05,-1.3547781236411538e-05,5.596133632934652e-05
-2.9569311664090492e-05,2.5220542738679796e-05,-1.2406278074195143e-05,5.459945896291174e-05
-3.1063813366927207e-05,2.2608692233916372e-05,-1.1067269042541739e-05,5.4182841267902404e-05
-2.9448021450662054e-05,2.3932341719046235e-05,-1.0409754395368509e-05,5.1775092288153246e-05
-2.9252214517327957e-05,2.5528770493110642e-05,-1.0503646080906037e-05,5.24468305229675e-05
-3.0963154131313786e-05,1.907931437017396e-05,-8.187503226508852e-06,5.3548072173725814e-05
-2.925447370216716e-05,-2.2945594082557363e-06,-1.5855217725402326e-06,5.561352372751571e-05
-2.979107193823438e-05,-2.672456503205467e-05,1.6696659486115095e-06,5.7685811043484136e-05
-3.142938658129424e-05,-3.17054582410492e-05,-4.386484306451166e-06,5.975749445497058e-05
-3.1324903829954565e-05,-1.477351088396972e-05,-9.462419257033616e-06,6.45765321678482e-05
-3.35921831720043e-05,6.317930456134491e-06,-9.260423212253954e-06,6.58885546727106e-05
-3.4007596696028486e-05,2.4340663003386e-05,-7.673714208067395e-06,6.367410969687626e-05
-3.332209962536581e-05,4.1878101910697296e-05,-6.342737378872698e-06,6.019851207383908e-05
-3.2329175155609846e-05,4.6863242459949106e-05,-5.756343398388708e-06,6.0504531575134024e-05
-2.9304215786396526e-05,3.678068969747983e-05,-8.400590559176635e-06,6.036612830939703e-05
-2.4464876332785934e-05,2.31877693295246e-05,-9.771366421773564e-06,5.892325134482235e-05
-2.1877329345443286e-05,2.4772911274340004e-05,-2.0963277620467125e-06,5.6202708947239444e-05
-2.235413012385834e-05,4.690859350375831e-05,9.55370251176646e-06,5.453170888358727e-05
-2.1663005099981092e-05,7.731680670985952e-05,1.3498751286533661e-05,5.561169746215455e-05
-1.9844914277200587e-05,8.286299998871982e-05,8.502730452164542e-06,5.628105645882897e-05
-1.8060247384710237e-05,5.5023847380653024e-05,2.8483473215601407e-06,5.5895048717502505e-05
-1.8452637959853746e-05,2.08907022170024e-05,-2.403906592007843e-06,5.356302790460177e-05
-2.0458059225347824e-05,7.5968332566844765e-06,-7.002267466305057e-06,4.944012835039757e-05
-2.2866934159537777e-05,2.1167068553040735e-05,-9.341831173514947e-06,4.385640932014212e-05
-2.430488711979706e-05,4.327296483097598e-05,-1.0868391655094456e-05,4.5293800212675706e-05
-2.6194686142844148e-05,4.314796387916431e-05,-1.427931147190975e-05,5.289468026603572e-05
-2.6056402930407785e-05,1.3835287063557189e-05,-1.7587963156984188e-05,5.649477679980919e-05
-2.1923511667409912e-05,-1.694937964202836e-05,-1.9539478671504185e-05,5.326403334038332e-05
-1.780852471711114e-05,-2.468520870024804e-05,-2.1764131815871224e-05,5.0459620979381725e-05
-1.8088172510033473e-05,-4.025770067528356e-06,-2.5682387786218897e-05,5.059068280388601e-05
-1.8878645278164186e-05,3.2622461731079966e-05,-2.7102296371595003e-05,5.280438927002251e-05
-1.7034089978551492e-05,7.296090916497633e-05,-2.2638036170974374e-05,5.7947199820773676e-05
-1.7585525711183436e-05,9.624654921935871e-05,-1.7843853129306808e-05,6.45806358079426e-05
-1.7878679500427097e-05,0.00010137965728063136,-1.687907388259191e-05,6.426461186492816e-05
-1.6476322343805805e-05,9.824832523008808e-05,-1.826581865316257e-05,5.8686571719590575e-05
-2.0440007574507035e-05,9.607670654077083e-05,-2.092629983962979e-05,5.6171498727053404e-05
-2.4519689759472385e-05,9.821740968618542e-05,-2.1064186512376182e-05,5.3751518862554803e-05
-2.942381070170086e-05,9.177471656585112e-05,-2.1409778128145263e-05,5.395858897827566e-05
-3.394639497855678e-05,6.428267079172656e-05,-2.10719426831929e-05,5.8745750720845535e-05
-3.257188291172497e-05,2.19045250560157e-05,-1.939289904839825e-05,6.222735828487203e-05
-3.0163022529450245e-05,-2.5967978217522614e-05,-1.9207847799407318e-05,6.091878094593994e-05
-2.7577527362154797e-05,-6.585641676792875e-05,-1.8140031897928566e-05,5.7654477132018656e-05
-2.7544909244170412e-05,-7.617726805619895e-05,-1.7188922356581315e-05,5.6470787967555225e-05
-2.8620230295928195e-05,-6.010584911564365e-05,-1.4651789570052642e-05,5.683265771949664e-05
-3.1656665669288486e-05,-3.375293454155326e-05,-1.474136661272496e-05,5.476762089529075e-05
-3.428124182391912e-05,-9.267519999411888e-06,-1.4049483979761135e-05,5.165042603039183e-05
-3.6384382838150486e-05,1.0384600500401575e-05,-9.061356649908703e-06,5.2432253141887486e-05
-3.5730565286939964e-05,2.1314228433766402e-05,-2.8529732389870333e-06,5.470575706567615e-05
-3.4182372473878786e-05,2.3271562895388342e-05,-1.1018030363629805e-06,5.715888983104378e-05
-3.243428727728315e-05,2.5173525500576943e-05,-4.159016953053651e-06,6.0659480368485674e-05
-3.0940540455048904e-05,2.9250801162561402e-05,-5.375937234930461e-06,6.226375990081578e-05
-3.061519601033069e-05,3.285013372078538e-05,-4.538667326414725e-06,6.215841858647764e-05
-3.110261241090484e-05,3.4353597584413365e-05,-2.698740672713029e-06,6.141652556834742e-05
-3.228029891033657e-05,3.311297041364014e-05,-7.855431363168464e-07,5.9844103816431016e-05
-2.996864350279793e-05,2.8745755116688088e-05,6.352784112095833e-07,5.904346835450269e-05
-2.4846653104759753e-05,2.4077507987385616e-05,-8.1787237604658e-07,6.0784444940509275e-05
-2.2148156858747825e-05,2.07633274840191e-05,-2.8502936402219348e-06,6.381107232300565e-05
-2.4351900719921105e-05,1.9676555893965997e-05,-2.860191898435005e-06,6.601684435736388e-05
-2.5620300220907666e-05,1.2115468962292653e-05,-3.991834091721103e-06,6.373105861712247e-05
-2.51726305577904e-05,-1.5120673424462439e-06,-1.1871418791997712e-05,5.88694674661383e-05
-2.6124547730432823e-05,-4.660203103412641e-06,-2.094261253660079e-05,5.682600385625847e-05
-3.0295264878077433e-05,4.933718173560919e-06,-2.0389037672430277e-05,5.8522466133581474e-05
-3.277070209151134e-05,2.7661195417749695e-05,-1.4718501006427687e-05,6.12378353253007e-05
-3.079776797676459e-05,3.6246434319764376e-05,-1.1701311450451612e-05,5.99373561271932e-05
-2.63592792180134e-05,2.485828190401662e-05,-1.1018392797268461e-05,5.8525303757051006e-05
-2.5222036128980108e-05,1.8642447685124353e-05,-1.574263114889618e-05,6.076331192161888e-05
-2.888638664444443e-05,2.2719406842952594e-05,-1.933923522301484e-05,6.137566379038617e-05
-3.293127883807756e-05,3.502861363813281e-05,-1.572792825754732e-05,6.142242636997253e-05
-3.3728185371728614e-05,4.095796975889243e-05,-8.902416084310971e-06,6.145111547084525e-05
-3.3970583899645135e-05,3.7363763112807646e-05,-2.8251758976693964e-06,6.162076169857755e-05
-3.406519317650236e-05,2.701074663491454e-05,-7.699032380514836e-07,6.363482680171728e-05
-3.332088454044424e-05,2.4093800675473176e-05,-2.9480634111678228e-06,6.755189679097384e-05
-2.9055219783913344e-05,2.9641736546182074e-05,-7.77534569351701e-06,6.886413757456467e-05
-2.403748112556059e-05,3.5540477256290615e-05,-1.0189392014581244e-05,6.700501398881897e-05
-2.3159444026532583e-05,3.343108619446866e-05,-1.047693058353616e-05,6.525460776174441e-05
-2.4273285816889256e-05,2.92969689326128e-05,-1.1371942491678055e-05,6.389064219547436e-05
-2.3175425667432137e-05,2.878441046050284e-05,-1.3373422916629352e-05,6.274740735534579e-05
-2.063419196929317e-05,2.5430446839891374e-05,-1.2612140380952042e-05,6.146222585812211e-05
-2.055807453871239e-05,2.0846055122092366e-05,-9.876311196421739e-06,6.162356294225901e-05
-2.265118746436201e-05,1.7210579244419932e-05,-6.7204618972027674e-06,6.0184873291291296e-05
-2.443959419906605e-05,1.290606724069221e-05,-2.9810403248120565e-06,5.897527080378495e-05
-2.2304740923573263e-05,1.6402819937866298e-06,-1.3161047718313057e-06,5.90971831115894e-05
-1.9327593690832146e-05,-7.151395948312711e-06,-2.7411481369199464e-06,5.763786975876428e-05
-2.1091742382850498e-05,-1.7885271290651872e-06,-3.214141315766028e-06,5.395037806010805e-05
-2.3052862161421217e-05,1.4408124116016552e-05,-4.4079470171709545e-06,5.129296914674342e-05
-2.0906014469801448e-05,2.2460792024503462e-05,-6.901684628246585e-06,5.21044603374321e-05
-1.8857483155443333e-05,2.2089619960752316e-05,-7.721998372289818e-06,5.4179487051442266e-05
-1.4231613022275269e-05,2.5457147785346024e-05,-9.703455361886881e-06,5.6183693232014775e-05
-9.931152817443945e-06,4.677463584812358e-05,-1.4443638065131381e-05,6.031847442500293e-05
-1.0143218787561636e-05,9.833680087467656e-05,-1.9399734810576774e-05,6.40144498902373e-05
-1.5881458239164203e-05,0.00014791522698942572,-1.8984155758516863e-05,6.613919686060399e-05
-2.183960532420315e-05,0.0001515892072347924,-1.3609254892799072e-05,6.639825733145699e-05
-2.2115606043371372e-05,0.00011871541937580332,-1.0101951374963392e-05,6.899402069393545e-05
-2.1645753804477863e-05,7.186568109318614e-05,-1.1025223102478776e-05,7.119301881175488e-05
-2.617597783682868e-05,3.2271997042698786e-05,-9.819304068514612e-06,6.66930282022804e-05
-2.9527125661843456e-05,-2.8004851628793404e-06,-7.103953521436779e-06,6.0925747675355524e-05
-2.8027881853631698e-05,-3.977429878432304e-05,-4.4087878450227436e-06,5.626504571409896e-05
-2.7173557100468315e-05,-6.696116179227829e-05,-1.8550310869613895e-06,5.6304543250007555e-05
-2.8162705348222516e-05,-7.355282286880538e-05,3.4475503980502253e-06,5.4802974773338065e-05
-2.9458220524247736e-05,-5.7402070524403825e-05,7.813252523192205e-06,5.253893323242664e-05
-2.7989966838504188e-05,-3.5618220863398165e-05,5.054524081060663e-06,5.313122892403044e-05
-2.27983582590241e-05,-2.8604072213056497e-05,-3.1059580578585155e-06,5.7188241044059396e-05
-1.7348800611216575e-05,-2.940960075648036e-05,-9.191552635456901e-06,6.35206451988779e-05
-1.5544599591521546e-05,-1.6331350707332604e-05,-8.761766366660595e-06,6.531053077196702e-05
-1.620323382667266e-05,7.64593823987525e-06,-8.820617949822918e-06,6.207299156812951e-05
-1.78787831828231e-05,2.2462862034444697e-05,-1.2366356713755522e-05,6.0315705923130736e-05
-2.009677882597316e-05,2.2842759790364653e-05,-1.558875919727143e-05,6.215297617018223e-05
-1.8643038856680505e-05,1.93036139535252e-05,-1.6753710951888934e-05,6.0172555095050484e-05
-1.5045557120174635e-05,1.7342352293781005e-05,-1.6470499758725055e-05,5.336375397746451e-05
-1.4236523384170141e-05,1.561989847687073e-05,-1.580506796017289e-05,4.9649537686491385e-05
-1.3728533303947188e-05,9.76741921476787e-06,-1.650257036089897e-05,5.353666711016558e-05
-1.3815995771437883e-05,6.434401257138234e-06,-1.6245414371951483e-05,5.7421733799856156e-05
-1.7445852790842764e-05,8.906902621674817e-06,-1.544601036584936e-05,5.762201180914417e-05
-1.8632737919688225e-05,1.1323183571221307e-05,-1.4113039469521027e-05,5.456656072055921e-05
-1.698281630524434e-05,6.145892712083878e-06,-1.120697197620757e-05,5.2517454605549574e-05
-1.6609095837338828e-05,3.4640186186152278e-06,-7.231882591440808e-06,5.566937034018338e-05
-1.9765060642384924e-05,1.2496997442212887e-05,-5.451298875414068e-06,6.185351230669767e-05
-2.300910637131892e-05,2.5899720640154555e-05,-3.927914804080501e-06,6.459475116571411e-05
-1.9144752513966523e-05,3.577672396204434e-05,-4.0790064304019324e-06,6.29373244009912e-05
-1.563905789225828e-05,4.2627594666555524e-05,-7.11487564331037e-06,5.9692007198464125e-05
-1.846204395405948e-05,4.943204112350941e-05,-9.08297806745395e-06,5.741939094150439e-05
-2.5387373170815408e-05,6.167966057546437e-05,-1.2937208339280915e-05,5.898195013287477e-05
-2.872232835215982e-05,6.698352081002668e-05,-1.7005711924866773e-05,6.0100588598288596e-05
-2.9369235562626272e-05,5.996956315357238e-05,-1.8580278265289962e-05,5.897918526898138e-05
-3.10301074932795e-05,4.7288762289099395e-05,-1.7227666830876842e-05,5.590603541349992e-05
-3.249105793656781e-05,3.595525413402356e-05,-9.42348560784012e-06,5.392035382101312e-05
-3.274421760579571e-05,3.28984679072164e-05,-1.7804746903493651e-06,5.3551273595076054e-05
-3.0136956411297433e-05,3.376481254235841e-05,-3.7786932693961717e-07,5.422297181212343e-05
-2.5614779588067904e-05,3.5735280107473955e-05,-2.9298860226845136e-06,5.410546145867556e-05
-2.3590235286974348e-05,3.5637884138850495e-05,-5.3271314754965715e-06,5.274437353364192e-05
-2.4882703655748628e-05,3.6659042962128296e-05,-5.583110123552615e-06,5.1389339205343276e-05
-2.5539440684951842e-05,3.7941066693747416e-05,-4.333454398874892e-06,5.1864659326383844e-05
-2.571796539996285e-05,4.011039709439501e-05,-2.7763273919845233e-06,5.523897198145278e-05
-2.7465408493299037e-05,4.742025339510292e-05,-3.2411699066869915e-06,5.8419514971319586e-05
-2.9927354262326844e-05,6.008621130604297e-05,-6.4029081840999424e-06,6.27963017905131e-05
-2.9887834898545407e-05,6.230744475033134e-05,-1.0509077583265025e-05,6.65603147353977e-05
-2.8949594707228243e-05,3.0429493563133292e-05,-1.1101985364803113e-05,6.536423461511731e-05
-2.847924770321697e-05,-2.910080729634501e-05,-1.0133887371921446e-05,6.0158432461321354e-05
-2.7504969693836756e-05,-6.805657903896645e-05,-1.1889712368429173e-05,5.674816929968074e-05
-2.7749149012379348e-05,-5.6507888075429946e-05,-1.597395385033451e-05,5.9560512454481795e-05
-2.893663440772798e-05,-1.3008077985432465e-05,-1.891174542834051e-05,6.426568143069744e-05
-2.8535134333651513e-05,3.103234848822467e-05,-1.842290112108458e-05,6.64623876218684e-05
-2.915291224780958e-05,6.474932160926983e-05,-1.475543285778258e-05,6.521996692754328e-05
-2.868142655643169e-05,9.50202374951914e-05,-1.3013542229600716e-05,6.529178790515289e-05
-2.951090755232144e-05,0.00013251363998278975,-1.7029173250193708e-05,6.87040519551374e-05
-3.439569991314784e-05,0.000161510324687697,-2.145651524187997e-05,6.72222813591361e-05
-3.761611515074037e-05,0.00015885393077041954,-1.954023537109606e-05,6.454237882280722e-05
-3.74237606592942e-05,0.00013477257743943483,-1.1406838893890381e-05,6.333267810987309e-05
-3.69849476555828e-05,9.82510027824901e-05,-1.960238932952052e-06,6.259165093069896e-05
-3.7614543543895707e-05,5.382510425988585e-05,-1.6701667391316732e-06,6.222284719115123e-05
-3.8189795304788277e-05,1.1445663403719664e-05,-1.1937632734770887e-05,6.376781675498933e-05
-3.72468784917146e-05,-1.677089494478423e-05,-2.1667883629561402e-05,6.497553113149479e-05
-3.4608481655595824e-05,-2.912109630415216e-05,-2.3210794097394682e-05,6.385942833730951e-05
-3.2823169021867216e-05,-2.9721688406425528e-05,-2.149297324649524e-05,6.119671888882294e-05
-3.4453456464689225e-05,-2.761411997198593e-05,-1.9187553334631957e-05,5.7870081946020946e-05
-3.533923882059753e-05,-2.8531043426482938e-05,-1.4124760127742775e-05,5.704407885787077e-05
-3.1366409530164674e-05,-2.9819602787028998e-05,-1.0860904694709461e-05,5.617166607407853e-05
-2.517810935387388e-05,-2.8419945010682568e-05,-1.2277091627765913e-05,5.5273787438636646e-05
-2.0417752239154652e-05,-2.5282994101871736e-05,-1.3554315046349075e-05,5.534344745683484e-05
-1.892435466288589e-05,-1.9935265299864113e-05,-9.56628628046019e-06,5.8565958170220256e-05
-1.9529412384144962e-05,-3.926244062313344e-06,-6.11507311987225e-06,6.183551886351779e-05
-2.252700323879253e-05,1.9039553080801852e-05,-4.893743152933894e-06,6.275578198255971e-05
-2.420997952867765e-05,3.211761941201985e-05,-4.717669526144164e-06,6.106164073571563e-05
-2.1933577954769135e-05,3.6755351175088435e-05,-7.889389962656423e-06,5.9036159655079246e-05
-1.8909357095253654e-05,4.911199357593432e-05,-1.0043148904514965e-05,6.0021695389878005e-05
-1.789149609976448e-05,6.126208609202877e-05,-6.023374680808047e-06,6.344611756503582e-05
-1.9656723452499136e-05,6.107483204687014e-05,-4.8959950618154835e-06,6.532083352794871e-05
-2.0973777282051742e-05,4.3300140532664955e-05,-8.860450179781765e-06,6.780992407584563e-05
-2.123858212144114e-05,6.941494575585239e-06,-1.1661903045023791e-05,6.638654303969815e-05
-2.4498496713931672e-05,-3.0594164854846895e-05,-1.3694770132133272e-05,5.99901941313874e-05
-2.398952710791491e-05,-5.9843918279511854e-05,-1.4685000678582583e-05,5.58188658033032e-05
-2.197486173827201e-05,-8.559025445720181e-05,-1.4012650353834033e-05,5.309309926815331e-05
-2.1027752154623158e-05,-9.680464427219704e-05,-1.4123612345429137e-05,5.0152251787949353e-05
-2.0394259991007857e-05,-6.371552444761619e-05,-1.7708118321024813e-05,4.9198737542610615e-05
-2.0878722352790646e-05,-1.0368837592977798e-06,-1.7686983483145013e-05,5.1024315325776115e-05
-2.0198505808366463e-05,5.2073010010644794e-05,-1.3091573237034027e-05,5.1781211368506774e-05
-2.3156317183747888e-05,8.738199539948255e-05,-9.812754797167145e-06,5.550675996346399e-05
-2.6783980501932092e-05,0.00010178096272284165,-9.23094466998009e-06,5.8956138673238456e-05
-2.875069731089752e-05,9.683897224022076e-05,-1.1276338227617089e-05,5.99682898609899e-05
-2.9557093512266874e-05,7.219703547889367e-05,-1.5181283743004315e-05,5.873361442354508e-05
-3.157207174808718e-05,4.487143814912997e-05,-1.793578121578321e-05,5.642692849505693e-05
-3.340862531331368e-05,3.234856194467284e-05,-1.6886006051208824e-05,5.621132004307583e-05
-3.441025910433382e-05,3.71012429241091e-05,-1.5439902199432254e-05,5.9200177929596975e-05
-3.6077286495128646e-05,3.906069468939677e-05,-1.5739957234472968e-05,6.184211088111624e-05
-3.830078640021384e-05,2.2142765374155715e-05,-1.555809285491705e-05,5.9842954215127975e-05
-3.8090962334536016e-05,-8.268183592008427e-06,-1.1730307051038835e-05,5.396878259489313e-05
-3.589659172575921e-05,-3.494749034871347e-05,-3.7459994928212836e-06,4.961306694895029e-05
-3.370026024640538e-05,-4.2970576032530516e-05,3.3611756862228503e-06,4.696457108366303e-05
-3.132388519588858e-05,-3.6204542993800715e-05,5.147946922079427e-06,4.477378388401121e-05
-3.0484357921523042e-05,-2.218180088675581e-05,2.4534033400414046e-06,4.4123818952357396e-05
-3.027985258086119e-05,-2.7303624392516213e-06,2.2613530745729804e-06,4.367362635093741e-05
-3.0412529667955823e-05,2.2687492673867382e-05,1.139283904194599e-05,4.595603240886703e-05
-2.9719318263232708e-05,4.661355342250317e-05,2.0020183001179248e-05,5.108669211040251e-05
-2.8539281629491597e-05,5.799100108561106e-05,1.4829451174591668e-05,5.5980395700316876e-05
-2.7785026759374887e-05,4.892804645351134e-05,2.5442077458137646e-06,5.8692461607279256e-05
-2.7244945158599876e-05,4.5397788198897615e-05,-3.588885192584712e-06,6.029274663887918e-05
-2.6516969228396192e-05,5.6466196838300675e-05,-2.848639951480436e-06,5.8664380048867315e-05
-2.308136026840657e-05,6.395753734977916e-05,-1.6831303355502314e-06,5.475414582178928e-05
-1.81185550900409e-05,6.258937355596572e-05,-5.700028964383819e-07,5.185346890357323e-05
-1.768538095348049e-05,4.9011880037141964e-05,-2.5781907879718347e-06,4.9270925956079736e-05
-2.0947114535374567e-05,2.64870141108986e-05,-8.132738003041595e-06,4.58431568404194e-05
-2.6761599656310864e-05,1.2299904483370483e-05,-1.3387340914050583e-05,4.499630813370459e-05
-3.2695879781385884e-05,9.01866951608099e-06,-1.93119758478133e-05,4.736564005725086e-05
-3.466144698904827e-05,9.397807843924966e-06,-2.232290353276767e-05,5.1002174586756155e-05
-3.316174115752801e-05,9.37524873734219e-06,-2.195576234953478e-05,5.2951178076909855e-05
-3.216100958525203e-05,1.3416692127066199e-05,-2.163804128940683e-05,5.45968723599799e-05
-3.2633732189424336e-05,2.2590947992284782e-05,-2.2827272914582863e-05,5.586022962233983e-05
-3.3109325158875436e-05,3.068285877816379e-05,-2.2796339180786163e-05,5.5643220548518e-05
-3.1492072594119236e-05,3.3227861422346905e-05,-2.074035000987351e-05,5.508775939233601e-05
-2.812977800203953e-05,2.6609935957822017e-05,-1.9643694031401537e-05,5.4672069381922483e-05
-2.525417039578315e-05,2.08036490221275e-05,-1.889702798507642e-05,5.416772182798013e-05
-2.616023448354099e-05,2.421144745312631e-05,-1.6993868484860286e-05,5.2512838010443375e-05
-2.963341466966085e-05,3.151824785163626e-05,-1.6670464901835658e-05,5.2702034736284986e-05
-3.232963717891835e-05,3.273229594924487e-05,-2.0411665900610387e-05,5.457350562210195e-05
-3.323153214296326e-05,2.853930345736444e-05,-2.592116106825415e-05,5.3571013268083334e-05
-3.2005558750825e-05,2.0312596461735666e-05,-2.7902104193344712e-05,5.07622717123013e-05
-3.2823019864736125e-05,9.328360647486988e-06,-2.2388006982509978e-05,5.114077794132754e-05
-3.5723260225495324e-05,4.704743787442567e-06,-1.0436792763357516e-05,5.2175782911945134e-05
-3.596841270336881e-05,1.1399505638109986e-05,-2.03654806796294e-07,5.1360944780753925e-05
-3.48296198353637e-05,2.1047291738796048e-05,2.135999011443346e-06,5.3339681471697986e-05
-3.30477996612899e-05,3.595888847485185e-05,3.23875292451703e-06,5.778909326181747e-05
-2.9144295695004985e-05,5.795471224701032e-05,1.0004514479078352e-05,6.103907799115404e-05
-2.404967017355375e-05,7.157927757361904e-05,1.6574476831010543e-05,6.39062054688111e-05
-1.8973418264067732e-05,7.767837087158114e-05,1.2287666322663426e-05,6.617879262194037e-05
-1.6925487216212787e-05,8.958662510849535e-05,-1.389721546729561e-06,6.555893924087286e-05
-1.9156634152750485e-05,9.878806304186583e-05,-1.318691920459969e-05,6.172571011120453e-05
-2.2634016204392537e-05,9.469653014093637e-05,-1.6853744455147535e-05,5.838344804942608e-05
-2.2012809495208785e-05,8.244701166404411e-05,-1.303695717069786e-05,5.41597546543926e-05
-2.3226528355735354e-05,6.228630081750453e-05,-5.14079738422879e-06,4.877629180555232e-05
-2.7337922801962122e-05,1.499500467616599e-05,-1.664882802288048e-06,4.654307122109458e-05
-2.890150062739849e-05,-6.173460133140907e-05,-6.135602689028019e-06,4.7763092879904434e-05
-2.7715423129848205e-05,-0.0001169941751868464,-1.4487372936855536e-05,4.963354513165541e-05
-2.959390803880524e-05,-0.00011519564577611163,-1.926827826537192e-05,5.128073098603636e-05
-3.2954063499346375e-05,-7.634739449713379e-05,-1.798130506358575e-05,4.95317617605906e-05
-3.110643592663109e-05,-3.925155760953203e-05,-1.1135749446111731e-05,4.812800762010738e-05
-2.4917795599321835e-05,-2.2796302800998092e-05,9.997988570376037e-08,4.991500100004487e-05
-1.8993900084751658e-05,-2.339639286219608e-05,8.159435310517438e-06,5.4408475989475846e-05
-1.669179073360283e-05,-1.997151230170857e-05,8.43412726680981e-06,5.8042445743922144e-05
-1.681346657278482e-05,2.278281044709729e-06,1.139882328970998e-06,5.7028526498470455e-05
-1.6976848201011308e-05,3.871758599416353e-05,-1.1031544090656098e-05,5.6380697060376406e-05
-1.4949234355299268e-05,7.618053496116772e-05,-2.0619369024643674e-05,6.0270675021456555e-05
-1.2448622328520287e-05,9.236152254743502e-05,-2.3474365661968477e-05,6.477161514339969e-05
-1.2903778952022549e-05,7.824820204405114e-05,-2.272292840643786e-05,6.624524394283071e-05
-1.7628542991587892e-05,5.3560790547635406e-05,-2.2029178580851294e-05,6.535550346598029e-05
-2.1086631022626534e-05,3.759138417080976e-05,-2.2626483769272454e-05,6.429654604289681e-05
-2.1076521079521626e-05,3.0514052923535928e-05,-2.4804610802675597e-05,6.57218843116425e-05
-2.0805724489036947e-05,3.584230216802098e-05,-2.4657021640450694e-05,6.721352838212624e-05
-2.246316034870688e-05,4.751577216666192e-05,-2.1433233996503986e-05,7.037277100607753e-05
-2.357452831347473e-05,5.438952939584851e-05,-1.8238408301840536e-05,7.340990850934759e-05
-2.1033347366028465e-05,4.626614099834114e-05,-1.2742404578602873e-05,7.41955082048662e-05
-1.906585384858772e-05,2.8300628400756977e-05,-6.838381068519084e-06,7.324951002374291e-05
-2.062787280010525e-05,2.221601789642591e-05,-7.139900844777003e-06,7.341046875808388e-05
-2.2078014808357693e-05,2.9367565730353817e-05,-1.788366716937162e-05,7.582297985209152e-05
-2.4033764930209145e-05,3.311008549644612e-05,-2.6509269446250983e-05,7.615958020323887e-05
-2.779653550533112e-05,2.898437378462404e-05,-2.77110611932585e-05,7.335319969570264e-05
-3.140779517707415e-05,2.241175934614148e-05,-2.4251294235000387e-05,7.200917752925307e-05
-3.191110590705648e-05,1.4837763956165873e-05,-1.9084396626567468e-05,7.39556853659451e-05
-2.8476380975916982e-05,1.2059795153618325e-05,-1.8176304365624674e-05,7.930878200568259e-05
-2.3871285520726815e-05,9.66856623563217e-06,-2.0429679352673702e-05,8.083995635388419e-05
-2.0988563846913166e-05,-7.281199145836581e-07,-2.5277749955421314e-05,7.471708522643894e-05
-2.359661812079139e-05,-1.638616777199786e-05,-2.7433303330326453e-05,6.84781844029203e-05
-2.83347544609569e-05,-1.975718441826757e-05,-2.315223537152633e-05,6.4072162786033e-05
-2.8669590392382815e-05,-3.1747645152790938e-06,-1.0978505088132806e-05,6.170538836158812e-05
-2.5248129531973973e-05,1.486462770117214e-05,1.8681483879845473e-06,6.306004070211202e-05
-2.5104503947659396e-05,2.101126483466942e-05,4.022458597319201e-06,6.537899753311649e-05
-2.901729749282822e-05,2.204397060268093e-05,-3.723127520061098e-06,6.46029511699453e-05
-3.0805727874394506e-05,2.8907503292430192e-05,-8.764495760260615e-06,6.162021600175649e-05
-3.1202027457766235e-05,4.1383573261555284e-05,-4.3514842218428385e-06,6.0313894209684804e-05
-3.371338243596256e-05,4.963353421771899e-05,2.521408532629721e-06,6.202855729497969e-05
-3.4084940125467256e-05,4.799362795893103e-05,4.692611582868267e-06,6.556456355610862e-05
-2.7273892555967905e-05,4.327480201027356e-05,3.0499052172672236e-06,6.744120037183166e-05
-1.9574245015974157e-05,3.981620830018073e-05,-1.8708257698563102e-07,6.520765600726008e-05
-2.0791938368347473e-05,3.605367601267062e-05,-6.237617071747081e-06,6.382120045600459e-05
-2.8324777304078452e-05,3.24982320307754e-05,-1.3534878235077485e-05,6.545125506818295e-05
-3.1423172913491726e-05,2.9902306778240018e-05,-1.825957042456139e-05,6.613825098611414e-05
-2.7930998840020038e-05,2.1299898435245268e-05,-1.826818333938718e-05,6.336578371701762e-05
-2.473396853019949e-05,1.5560090105282143e-05,-1.7515270883450285e-05,5.980348578304984e-05
-2.680387842701748e-05,3.280500459368341e-05,-1.5529820302617736e-05,5.752594006480649e-05
-3.211699367966503e-05,5.713998689316213e-05,-1.388949567626696e-05,5.357075133360922e-05
-3.404636663617566e-05,5.645702185574919e-05,-1.4823430319665931e-05,4.954734322382137e-05
-3.16138393827714e-05,3.4241391404066235e-05,-1.3646223123942036e-05,4.7184723371174186e-05
-2.8015572752337903e-05,1.1827000889752526e-05,-1.2567417797981761e-05,4.6929730160627514e-05
-2.522917384339962e-05,1.5276046383405628e-07,-9.724382834974676e-06,5.175387195777148e-05
-2.5553728846716695e-05,1.4386687325895764e-05,-7.250109774759039e-06,5.6341545132454485e-05
-2.793006024148781e-05,3.52599163306877e-05,-1.1434208317950834e-05,5.52648889424745e-05
-3.090921381954104e-05,2.9368611649260856e-05,-1.7324782675132155e-05,4.950990478391759e-05
-3.0135315682855435e-05,9.815505109145306e-06,-1.5772002370795235e-05,4.5992452214704826e-05
-2.4660970666445792e-05,-1.1553795502550201e-06,-5.842415248480393e-06,4.649730180972256e-05
-2.0662308088503778e-05,-1.0539340109971818e-05,3.290591621407657e-06,4.827136217500083e-05
-2.0835666873608716e-05,-2.006034083024133e-05,3.1761567242938327e-06,4.852204801863991e-05
-2.0888412109343335e-05,-1.633346801099833e-05,-4.101418198843021e-06,4.7965237172320485e-05
-1.5307638022932224e-05,1.5136498632273288e-06,-5.05711841469747e-06,4.879027255810797e-05
-8.166814950527623e-06,2.6814539523911662e-05,5.256234999251319e-06,4.8940240958472714e-05
-6.708236924168887e-06,4.6087370719760656e-05,1.5038291167002171e-05,5.012503970647231e-05
-7.875333722040523e-06,6.0932339692953974e-05,1.2446643268049229e-05,5.456642611534335e-05
-6.924818535480881e-06,7.720230496488512e-05,1.4234574337024242e-06,5.734410660807043e-05
-7.293192538782023e-06,8.926563168643042e-05,-8.109247573884204e-06,5.636979767587036e-05
-1.1453636034275405e-05,9.37688018893823e-05,-1.145457736129174e-05,5.41128174518235e-05
-1.796144715626724e-05,9.446769399801269e-05,-7.593637747049797e-06,5.1978917326778173e-05
-2.289422081958037e-05,8.161397272488102e-05,-1.3480573670676677e-06,5.270907422527671e-05
-2.600104380690027e-05,4.9534493882674724e-05,-1.775282157723268e-06,5.326181053533219e-05
-3.177643520757556e-05,1.7509963072370738e-05,-7.718246706645004e-06,5.255684664007276e-05
-3.8955287891440094e-05,7.748246389382984e-06,-1.001811779133277e-05,5.340763527783565e-05
-4.0740196709521115e-05,1.1826742593257222e-05,-3.564013923096354e-06,5.521116327145137e-05
-3.8961203244980425e-05,1.0748612112365663e-05,2.4308692445629276e-06,5.429442535387352e-05
-3.719638698385097e-05,-1.037920924318314e-06,-5.858034910488641e-07,5.613631947198883e-05
-3.366151577210985e-05,-2.4604738428024575e-05,-9.663707714935299e-06,6.470086373155937e-05
-3.140628905384801e-05,-5.297559255268425e-05,-1.9348404748598114e-05,6.799477705499157e-05
-2.8661363103310578e-05,-7.747345807729289e-05,-2.585868969617877e-05,6.214737368281931e-05
-2.6085732315550558e-05,-9.208853589370847e-05,-2.8796508559025824e-05,5.595921174972318e-05
-2.5943423679564148e-05,-8.43477391754277e-05,-2.3082826373865828e-05,5.642552423523739e-05
-2.3536693333880976e-05,-4.991974856238812e-05,-8.74450142873684e-06,6.510895764222369e-05
-2.6811103452928364e-05,-1.7056461729225703e-05,9.050212611327879e-06,7.634777284692973e-05
-4.3174575694138184e-05,1.0226995073026046e-05,1.712441553536337e-05,8.434216579189524e-05
-6.433478120015934e-05,3.5372482670936733e-05,9.52077334659407e-06,8.838493522489443e-05
-8.052050543483347e-05,6.0202761233085766e-05,-2.541937419664464e-06,9.004810999613255e-05
-8.872777107171714e-05,7.340696902247146e-05,-8.285579497169238e-06,9.163759386865422e-05
-9.41703183343634e-05,7.219199324026704e-05,-5.047614649811294e-06,9.671221778262407e-05
-9.994282299885526e-05,7.701112190261483e-05,7.068350896588527e-06,0.0001065051110344939
-9.659541683504358e-05,9.771151962922886e-05,1.8491373339202255e-05,0.00011870578600792214
-8.04433148005046e-05,0.00011687181540764868,1.7962745914701372e-05,0.000127679348224774
-6.23849846306257e-05,0.00011934775102417916,1.0519990610191599e-05,0.00012902093294542283
-4.637884194380604e-05,0.00011226690548937768,5.337802122085122e-06,0.00012364814756438136
-2.7613594284048304e-05,0.00010479354386916384,4.860281023866264e-06,0.00011837205966003239
-6.241293704078998e-06,9.641374344937503e-05,4.908758910460165e-06,0.00011608022032305598
1.529630935692694e-05,7.170820754254237e-05,-2.2721837922290433e-07,0.00011218893632758409
3.466816997388378e-05,3.517459117574617e-05,-1.0438114259159192e-05,0.00010365647176513448
5.302274803398177e-05,6.212216703715967e-06,-1.5088537111296318e-05,8.918100502341986e-05
7.483643275918439e-05,-8.915983016777318e-06,-8.128643457894213e-06,6.551338447025046e-05
9.688971476862207e-05,-1.8833927242667414e-05,-2.7923718448619184e-07,3.556835144991055e-05
0.00010902269423240796,-3.338908209116198e-05,-3.8197299545572605e-06,9.57994234340731e-06
0.00010417925659567118,-6.054645564290695e-05,-1.1068545063608326e-05,-1.0093704986502416e-05
8.631547098048031e-05,-8.132959192153066e-05,-1.4866509445710108e-05,-3.6656092561315745e-05
6.516175926662982e-05,-7.804942288203165e-05,-1.8628834368428215e-05,-6.50699294055812e-05
4.905222522211261e-05,-5.625796620734036e-05,-2.553073863964528e-05,-7.80808404670097e-05
3.901021045749076e-05,-3.455525074969046e-05,-3.45599401043728e-05,-7.583317346870899e-05
2.804711039061658e-05,-1.5417273971252143e-05,-3.739288149517961e-05,-6.410910282284021e-05
1.6096966646728106e-05,8.942868589656428e-06,-3.256148920627311e-05,-5.6805714848451316e-05
5.1674196583917364e-06,5.4366497352020815e-05,-2.8396931156748906e-05,-5.018087540520355e-05
-5.142031113791745e-06,0.0001060322902048938,-2.816933556459844e-05,-3.106030635535717e-05
-1.5636152966180816e-05,0.00012669955322053283,-2.555165337980725e-05,-5.223820608080132e-06
-3.256282434449531e-05,0.00012064448674209416,-1.5777619410073385e-05,1.946301017596852e-05
-5.580459037446417e-05,0.0001076767293852754,-4.211629402561812e-06,4.6666053094668314e-05
-7.693438965361565e-05,9.276107448386028e-05,5.68793211641605e-07,7.210390322143212e-05
-9.042035526363179e-05,6.43156236037612e-05,-2.272206756970263e-06,9.26051361602731e-05
-9.59804528974928e-05,2.326762114535086e-05,-5.015375336370198e-06,0.00011045698920497671
-9.551350376568735e-05,-7.674808330193628e-06,-4.496030669542961e-06,0.0001261701254406944
-9.601637430023402e-05,-1.976754720089957e-05,-5.1101392273267265e-06,0.00013824510097038
-0.00010078951163450256,-2.7307873097015545e-05,-1.0432040653540753e-05,0.0001485874381614849
-0.00010282242874382064,-4.262241054675542e-05,-1.81394843821181e-05,0.0001637592213228345
-9.332488843938336e-05,-6.520326860481873e-05,-2.3553246137453243e-05,0.0001839768374338746
-7.949745486257598e-05,-8.126648026518524e-05,-2.6204725145362318e-05,0.00020057274377904832
-8.227460057241842e-05,-7.921531505417079e-05,-2.4301156372530386e-05,0.00020350588602013886
-0.00010427112283650786,-6.165352533571422e-05,-1.7808317352319136e-05,0.00018956500571221113
-0.00012475364201236516,-3.654399188235402e-05,-1.44303612614749e-05,0.00015341007383540273
-0.00012525157944764942,-4.480837105802493e-06,-1.5836649254197255e-05,0.00010859187750611454
-0.00010081884101964533,2.549349665059708e-05,-1.3283841326483525e-05,9.373574721394107e-05
-5.7211669627577066e-05,4.453673682291992e-05,-9.81819539447315e-06,0.0001170765099232085
-1.641138078412041e-05,5.658623558701947e-05,-1.152933509729337e-05,0.00013406324433162808
-6.9516167968686204e-06,6.902030145283788e-05,-1.3952428162156139e-05,0.00010973144526360556
-2.3094735297490843e-05,8.218237780965865e-05,-1.4219157492334489e-05,7.333026587730274e-05
-3.084043419221416e-05,9.280784433940426e-05,-1.5067020285641775e-05,5.022109689889476e-05
-3.025108526344411e-05,9.227493865182623e-05,-1.4888826626702212e-05,7.810932402207982e-06
-2.6427371267345734e-05,7.606706640217453e-05,-3.652769919426646e-06,-5.992487058392726e-05
-3.803828576565138e-07,5.5508480727439746e-05,8.704168067197315e-06,-0.00012006059114355594
2.9004075258853845e-05,4.842503403779119e-05,7.930356332508381e-06,-0.0001504524116171524
2.4291864974657074e-05,6.44834217382595e-05,-7.067201295285486e-07,-0.00015792691556271166
-4.238605015416397e-06,9.313154441770166e-05,-1.096734922612086e-05,-0.00014785118401050568
-2.881406544474885e-05,0.0001179694663733244,-1.6278007024084218e-05,-0.00012156721641076729
-4.4409000111045316e-05,0.00012349629832897335,-1.5613410141668282e-05,-9.18088189791888e-05
-4.448148683877662e-05,0.00010914455924648792,-6.2544786487706006e-06,-5.8081572205992416e-05
-2.1174033463466913e-05,9.020595462061465e-05,1.177737613033969e-05,-6.145599400042556e-06
1.3725428289035335e-05,7.445220398949459e-05,2.5828810976236127e-05,5.468673407449387e-05
4.7782468755031005e-05,5.761137799709104e-05,2.6784604415297508e-05,9.920720913214609e-05
6.755776121281087e-05,4.028729017591104e-05,1.2491911547840573e-05,0.00012153146235505119
3.759416358661838e-05,3.3606433134991676e-05,-1.090594469133066e-05,0.0001354311389150098
-4.9996186135103926e-05,3.569844921003096e-05,-2.976458017656114e-05,0.00014564338198397309
-0.0001368291996186599,3.311839100206271e-05,-3.5844885132974014e-05,0.00014207874482963234
-0.00016938461340032518,1.6623473129584454e-05,-3.392341750441119e-05,0.0001232620852533728
-0.00015426872414536774,-5.986993073747726e-06,-3.346362427691929e-05,9.939169103745371e-05
-0.000122443467262201,-1.7857677448773757e-05,-3.701319292304106e-05,8.786365651758388e-05
-7.981221278896555e-05,-1.3984522411192302e-05,-3.3916632673935965e-05,9.829023474594578e-05
-2.2229711248655804e-05,-5.747564046032494e-06,-2.2116149921203032e-05,0.00012282289389986545
3.237813143641688e-05,-9.031390618474688e-06,-9.470362783758901e-06,0.00014299438043963164
7.066653051879257e-05,-2.105354178638663e-05,1.663373041083105e-06,0.00015016557881608605
9.842553117778152e-05,-2.9974684366607107e-05,6.3709776441100985e-06,0.00014216158888302743
0.00014050475147087127,-3.906618439941667e-05,2.650837586770649e-06,0.00011042876576539129
0.00019482207426335663,-4.070739305461757e-05,-1.0120002116309479e-06,4.9923586630029604e-05
0.0002079401456285268,-3.983268470619805e-05,2.8230876978341257e-06,-1.1091869964729995e-05
0.00015370668552350253,-4.2764968384290114e-05,1.583253833814524e-05,-3.73869770555757e-05
7.262772851390764e-05,-3.2526193535886705e-05,3.343399293953553e-05,-2.6328852982260287e-05
1.767449066392146e-05,-4.958042154612485e-06,3.364769509062171e-05,-7.967774763528723e-06
3.724501766555477e-06,2.976509313157294e-05,1.061408875102643e-05,-5.856740699528018e-06
2.2363463358487934e-05,4.118396100238897e-05,-1.7674661648925394e-05,-2.16833232116187e-05
4.433946742210537e-05,2.480707917129621e-05,-3.511931572575122e-05,-5.2611234423238784e-05
4.780799645232037e-05,1.3570341252489015e-05,-3.8291636883514e-05,-0.00010185155406361446
3.625304452725686e-05,1.561484532430768e-05,-3.359148831805214e-05,-0.00014999239647295326
2.166426565963775e-05,6.728002517775167e-06,-2.2232896299101412e-05,-0.00014213057875167578
7.303003712877398e-06,-2.0867564671789296e-05,-5.276202500681393e-06,-6.895928527228534e-05
-1.5127074220799841e-05,-4.670023554353975e-05,1.025850997393718e-05,1.0429015674162656e-05
-4.9795555241871625e-05,-3.8473750464618206e-05,1.7813694284996018e-05,5.033025081502274e-05
-9.154564031632617e-05,1.0305846444680355e-05,1.8091210222337395e-05,5.312134453561157e-05
-0.00012710958253592253,6.287332507781684e-05,1.0121131708729081e-05,3.7454854464158416e-05
-0.00014652867685072124,7.478123006876558e-05,-6.848263637948548e-06,2.1232366634649225e-05
-0.00015554597484879196,5.043894634582102e-05,-2.493915962986648e-05,2.2784925022278912e-05
-0.0001751075906213373,3.0185748983058147e-05,-3.3974338293774053e-05,4.80533781228587e-05
-0.00021166300575714558,3.119055327260867e-05,-3.2652234949637204e-05,8.728371903998777e-05
-0.0002462593838572502,4.048248229082674e-05,-3.0714250897290185e-05,0.00012711323506664485
-0.0002564951137173921,3.8821875932626426e-05,-3.691992242238484e-05,0.00016128018614836037
-0.00024461332941427827,2.771095205389429e-05,-4.09625718020834e-05,0.00018394197104498744
-0.0002122152945958078,1.3155809938325547e-05,-3.705385825014673e-05,0.00018515194824431092
-0.00015738823276478797,1.635525904930546e-06,-3.246823689551093e-05,0.00017444025434087962
-9.916200360748917e-05,4.195357178105041e-06,-3.0463907023658976e-05,0.00016531121218577027
-4.265222742105834e-05,1.6100666471174918e-05,-3.779558028327301e-05,0.00014948549505788833
7.001541234785691e-06,3.567135354387574e-05,-5.0144670240115374e-05,0.00011848383292090148
5.012543988414109e-05,5.68003706575837e-05,-5.460149986902252e-05,8.302312926389277e-05
9.901148587232456e-05,8.103952859528363e-05,-4.972246097167954e-05,5.4175245168153197e-05
0.00014872931933496147,0.00010555112385191023,-4.0778762922855094e-05,3.489606024231762e-05
0.00018451528740115464,0.0001128247458836995,-3.4446951758582145e-05,8.91161380423e-06
0.0001907171099446714,9.600811608834192e-05,-3.0511608201777562e-05,-2.9693144824705087e-05
0.00017261358152609318,6.776754162274301e-05,-2.4733741156524047e-05,-5.4010877647669986e-05
0.00014411700249183923,7.109850412234664e-05,-8.979714039014652e-06,-4.379574966151267e-05
0.00011881480168085545,0.00010124007530976087,1.942615745065268e-05,-3.008454768860247e-05
9.394869994139299e-05,0.00011370054562576115,3.8582904380746186e-05,-5.513255382538773e-05
6.51773443678394e-05,8.085193985607475e-05,3.3814860216807574e-05,-7.975690823514014e-05
4.037255348521285e-05,1.195115146401804e-05,1.2159150173829403e-05,-4.693631854024716e-05
1.7474831111030653e-05,-6.661844236077741e-05,-1.1153495506732725e-05,1.7948850654647686e-05
-1.1582413208088838e-05,-0.00012122969928896055,-2.36839332501404e-05,6.029669748386368e-05
-4.0944807551568374e-05,-0.00013127824058756232,-2.393947943346575e-05,7.24604760762304e-05
-6.355878576869145e-05,-0.00010699895210564137,-1.686026189418044e-05,7.662154530407861e-05
-7.82434071879834e-05,-7.294250099221244e-05,-8.851795428199694e-06,8.375013567274436e-05
-7.729240314802155e-05,-4.007783718407154e-05,-3.977011601818958e-06,9.624953236198053e-05
-5.9973248426103964e-05,1.232992872246541e-07,-1.7006288999255048e-06,0.0001031862193485722
-4.224216172588058e-05,4.272428486729041e-05,1.7336151358904317e-06,9.17764991754666e-05
-4.1586379666114226e-05,7.472980360034853e-05,1.0921645298367366e-05,7.84634830779396e-05
-4.817530862055719e-05,9.493406832916662e-05,2.3105560103431344e-05,8.349912968697026e-05
-4.5345437683863565e-05,0.00010803429177030921,2.9355500373640098e-05,0.00010117251076735556
-4.4632073695538566e-05,0.00010713341907830909,2.6845249522011727e-05,0.00011581219587242231
-6.092371040722355e-05,8.506189624313265e-05,1.6083757145679556e-05,0.0001228664186783135
-8.807079575490206e-05,4.988621731172316e-05,5.533054718398489e-06,0.0001303465396631509
-0.00011148379417136312,3.310183092253283e-05,-2.6806418418345856e-07,0.0001374923303956166
-0.00012048943608533591,2.8911566914757714e-05,-9.864239473245107e-06,0.00013693033542949706
-0.00012144922948209569,-8.177631571015809e-06,-2.5358607672387734e-05,0.00012524425983428955
-0.0001174042554339394,-5.4498654208146036e-05,-3.4910561225842685e-05,0.00010748407657956704
-0.00010814197594299912,-6.770600157324225e-05,-3.5643912269733846e-05,9.668234997661784e-05
-9.724833216750994e-05,-8.017390791792423e-05,-3.464593464741483e-05,9.299175144406036e-05
-9.041141311172396e-05,-0.00011645755876088515,-3.5709374060388654e-05,8.982182043837383e-05
-8.016476931516081e-05,-0.00014482022379525006,-4.10713764722459e-05,8.158232958521694e-05
-6.18200792814605e-05,-0.00012043328024446964,-4.4486532715382054e-05,7.22839540685527e-05
-4.752387394546531e-05,-5.638436778099276e-05,-4.012456338386983e-05,7.19085437594913e-05
-4.7091369197005406e-05,3.790696609939914e-06,-3.149296389892697e-05,8.767502004047856e-05
-5.017550938646309e-05,2.904706161643844e-05,-1.9662551494548097e-05,0.00011279881437076256
-4.684159648604691e-05,2.5073863071156666e-05,-8.080842235358432e-06,0.00013031753769610077
-3.913799810106866e-05,2.466367914166767e-05,-2.1974449282424757e-06,0.000130708038341254
-3.0284636522992514e-05,3.512344483169727e-05,1.7699463796816417e-06,0.00012097660510335118
-2.9406191970338114e-05,3.473192919045687e-05,4.246649496053578e-06,0.0001119092121371068
-3.950277823605575e-05,2.4199685867642984e-05,7.258807272592094e-06,0.00010702053987188265
-5.1790491852443665e-05,3.161916174576618e-05,1.3314546777110081e-05,0.00010243927681585774
-5.359942588256672e-05,5.339613198884763e-05,2.3148561012931168e-05,9.401232091477141e-05
-4.545562114799395e-05,6.485977792181075e-05,3.371345155755989e-05,7.995400665095076e-05
-3.454163743299432e-05,5.885022255824879e-05,3.320652467664331e-05,6.328383460640907e-05
-3.063539043068886e-05,5.567628613789566e-05,1.5341789548983797e-05,5.6141889217542484e-05
-3.420324719627388e-05,6.602365465369076e-05,-4.398043074615998e-06,6.279736408032477e-05
-3.7204110412858427e-05,6.801713607273996e-05,-1.5045668988022953e-05,7.265727617777884e-05
-3.2102350814966485e-05,5.18480155733414e-05,-2.339246384508442e-05,6.46249609417282e-05
-1.856586277426686e-05,4.099569559912197e-05,-3.359310358064249e-05,4.75607012049295e-05
-6.8390913838811684e-06,4.216713932692073e-05,-4.228619218338281e-05,4.775117849931121e-05
-6.268697234190768e-06,2.2930260456632823e-05,-4.407561937114224e-05,5.291815978125669e-05
-1.2070740922354162e-05,-3.4281010812264867e-06,-3.919541632058099e-05,4.726628685602918e-05
-1.2584117030201014e-05,1.587286351423245e-05,-2.5461918994551525e-05,4.4437296310206875e-05
-8.398024874622934e-06,5.951306957285851e-05,-1.279527168662753e-05,5.362003139453009e-05
-9.577236596669536e-06,8.494575013173744e-05,-6.994860541453818e-06,6.568625394720584e-05
-1.4932325939298607e-05,8.539338159607723e-05,8.392796189582441e-06,7.430592813761905e-05
-1.6174459233297966e-05,8.489727770211175e-05,2.848000622179825e-05,8.895259816199541e-05
-1.5171414815995377e-05,9.444550960324705e-05,3.45704065694008e-05,0.00010912658763118088
-1.4406525224330835e-05,9.559368481859565e-05,2.5114683012361638e-05,0.00011840731167467311
-1.1518351129780058e-05,6.029856012901291e-05,1.0184963684878312e-05,0.00011376765178283677
-5.895209142181557e-06,-7.7012127803755e-06,3.4004406188614666e-06,0.00010548315185587853
1.8900745999417268e-06,-6.30441281828098e-05,6.614885933231562e-06,9.956605208572e-05
1.2241138392710127e-05,-6.86105340719223e-05,1.2087867617083248e-05,9.580610640114173e-05
2.7406438675825484e-05,-3.096490399912e-05,1.4012914107297547e-05,9.317438525613397e-05
3.7412224628496915e-05,1.6520054487045854e-05,1.01758778328076e-05,9.254673932446167e-05
3.138538158964366e-05,5.4223644838202745e-05,-1.813793801375141e-06,9.51096008066088e-05
1.3964924619358499e-05,7.970038132043555e-05,-1.4999101949797478e-05,0.00010056878818431869
-1.5209901675916626e-06,9.175863669952378e-05,-2.262924681417644e-05,0.00010055200255010277
-6.932616543053882e-06,8.500758849550039e-05,-2.522651629988104e-05,9.306430001743138e-05
-6.4443388509971555e-06,6.469417712651193e-05,-2.6521911422605626e-05,8.484075078740716e-05
-7.443214599334169e-06,4.311434167902917e-05,-2.746703648881521e-05,7.965935947140679e-05
-1.1117875146737788e-05,2.9494938644347712e-05,-2.4789716917439364e-05,7.333759276662022e-05
-1.8628474208526313e-05,2.8505781301646493e-05,-1.599676579644438e-05,6.727738218614832e-05
-3.107899829046801e-05,4.131050445721485e-05,9.29868519961019e-07,6.909255171194673e-05
-4.025688031106256e-05,4.240636189933866e-05,2.2083842850406654e-05,7.329394429689273e-05
-4.1433006117586046e-05,1.0525419384066481e-05,2.8385677069309168e-05,7.337278657360002e-05
-3.898556315107271e-05,-2.117683288815897e-05,1.5564573914161883e-05,6.86491111991927e-05
-3.430827928241342e-05,-1.865807280410081e-05,7.154536433517933e-06,5.39397333341185e-05
-1.7738202586770058e-05,-2.316900008736411e-06,7.51163770473795e-06,3.824897066806443e-05
8.07981393791124e-07,4.424012786330422e-06,-3.6749094078913913e-07,3.323486089357175e-05
3.062486030103173e-06,-9.167116843400436e-08,-1.7919866877491586e-05,3.183747685397975e-05
-7.474798167095287e-06,-4.6426025619439315e-06,-3.0181006877683103e-05,3.077578003285453e-05
-2.2484709916170686e-05,-1.197552410303615e-05,-3.523702980601229e-05,2.7422618586570024e-05
-3.4016728022834286e-05,-2.722647877817508e-05,-4.102999810129404e-05,2.2844655177323148e-05
-3.663477036752738e-05,-2.5103765437961556e-05,-5.0731952796923e-05,1.8996663129655644e-05
-4.0186070691561326e-05,1.494959451520117e-05,-5.15726424055174e-05,1.8150019968743436e-05
-4.848724347539246e-05,6.22041043243371e-05,-4.035487290821038e-05,1.6020621842471883e-05
-5.153508027433418e-05,7.660164556000382e-05,-2.5712992282933556e-05,9.956633221008815e-06
-4.906559479422867e-05,5.7308778195874766e-05,-1.692791556706652e-05,2.2369051748682978e-06
-4.8816436901688576e-05,3.8033209420973435e-05,-1.1531011296028737e-05,-4.818023739971977e-07
-5.2092247642576694e-05,4.7631983761675656e-05,-8.652914971207792e-07,6.307679996098159e-06
-5.6077329645631835e-05,7.855303556425497e-05,5.474829322338337e-06,1.1078248462581541e-05
-5.7794815802481025e-05,0.00010394651326350868,3.479108556803112e-07,8.123783118207939e-06
-5.3577852668240666e-05,0.0001188958776765503,-4.030194759252481e-06,9.788960596779361e-06
-4.0212868043454364e-05,0.00013416929868981242,1.3474946172209457e-06,2.1085525077069178e-05
-2.109808337991126e-05,0.00014532879868056625,5.507333753485e-06,3.0461998903774656e-05
-4.6850268518028315e-06,0.00013528701674658805,-1.6349993074982194e-06,2.9616376195917837e-05
3.181022066200967e-06,9.70684050116688e-05,-1.769042864907533e-05,2.427732943033334e-05
-1.8609324570206809e-06,4.325537520344369e-05,-3.144957372569479e-05,3.071214450756088e-05
-1.582715594850015e-05,-4.575997081701644e-06,-4.019786501885392e-05,4.610555697581731e-05
-3.0741346563445404e-05,-3.234857285860926e-05,-4.7718396672280505e-05,5.056607915321365e-05
-4.3239921069471166e-05,-4.980509766028263e-05,-5.297454845276661e-05,4.1944000258808956e-05
-4.964022082276642e-05,-5.392073580878787e-05,-4.634923971025273e-05,3.5401313652982935e-05
-4.72188949061092e-05,-4.729921056423336e-05,-3.352760904817842e-05,3.792666757362895e-05
-4.131346213398501e-05,-3.9225593354785815e-05,-1.4264729543356225e-05,4.6070410462561995e-05
-3.7048852391308174e-05,-3.365526572451927e-05,9.728643817652483e-06,4.689339402830228e-05
-3.264682163717225e-05,-1.791697104636114e-05,1.8208522305940278e-05,3.974183709942736e-05
-2.546402538428083e-05,1.8865097445086576e-05,1.595675348653458e-05,3.693157486850396e-05
-2.0166311514913104e-05,4.820831600227393e-05,9.429441888642032e-06,4.370885653770529e-05
-2.115041934303008e-05,6.195408786879852e-05,2.4257074073830154e-06,5.291297202347778e-05
-2.486825360392686e-05,7.753552927169949e-05,-7.3218402576458175e-06,5.498373502632603e-05
-2.8670750907622278e-05,8.28854099381715e-05,-1.5090147826413158e-05,4.861419802182354e-05
-2.9554268621723168e-05,6.723780825268477e-05,-1.580904245201964e-05,3.847688276437111e-05
-2.8144635507487692e-05,4.4785861973650753e-05,-1.7102389392675832e-05,2.8683147320407443e-05
-2.828681499522645e-05,2.5771763830562122e-05,-1.9876750229741447e-05,2.1583678972092457e-05
-3.124854265479371e-05,2.5686877052066848e-06,-2.3010252334643155e-05,2.275795122841373e-05
-3.699170338222757e-05,-2.740437957982067e-05,-2.3402237275149673e-05,3.0358896765392274e-05
-4.2073017539223656e-05,-5.115443127579056e-05,-2.102050893881824e-05,3.911928433808498e-05
-4.0395912947133183e-05,-5.178413266548887e-05,-1.1864633961522486e-05,4.365069617051631e-05
-3.129131437162869e-05,-3.4501816116971895e-05,1.1757665561162867e-06,4.055162935401313e-05
-2.1631771232932806e-05,-2.114065136993304e-05,9.704353942652233e-06,3.4660242818063125e-05
-1.1905106475751381e-05,-1.1300122423563153e-05,1.2778934433299582e-05,3.3824879210442305e-05
5.614313636215229e-07,1.2249685823917389e-05,1.2198527656437363e-05,4.1182076529366896e-05
1.2198790500406176e-05,5.3975665650796145e-05,2.2908043320057914e-06,5.1531718781916425e-05
1.6036687156884e-05,9.187691466649994e-05,-9.377705282531679e-06,5.4905111028347164e-05
1.0321259651391301e-05,9.887062333291396e-05,-9.816402780415956e-06,4.715121758636087e-05
-1.3727543546337984e-06,6.739512173226103e-05,-3.633866754171322e-06,3.7686648283852264e-05
-1.0062528417620342e-05,1.4658126929134596e-05,-3.0797068575338926e-06,3.8685342587996274e-05
-1.1921779332624283e-05,-3.615547757362947e-05,-1.2967048860446084e-05,5.1273818826302886e-05
-1.3501024113793392e-05,-7.236559031298384e-05,-2.3619406420039013e-05,6.235435284906998e-05
-1.7418808056390844e-05,-7.980337250046432e-05,-2.4957356799859554e-05,6.158057658467442e-05
-2.3853386664995924e-05,-6.630003190366551e-05,-2.1248992197797634e-05,5.752495417254977e-05
-2.7547266654437408e-05,-5.229412636253983e-05,-1.746920133882668e-05,5.591999797616154e-05
-2.607567876111716e-05,-3.4120803320547566e-05,-1.211203561979346e-05,5.801508450531401e-05
-2.5773242668947205e-05,-9.220262654707767e-06,-9.936108654073905e-06,6.807806494180113e-05
-2.7875270461663604e-05,1.8738202925305814e-05,-1.1219854059163481e-05,7.834792631911114e-05
-2.9862667361157946e-05,3.941735121770762e-05,-1.4473118426394649e-05,8.180629083653912e-05
-2.7305226467433386e-05,4.710239954874851e-05,-1.5589124814141542e-05,7.912079308880493e-05
-2.4719725843169726e-05,4.14783316955436e-05,-1.4039536836207844e-05,7.68254540162161e-05
-2.6692812753026374e-05,2.844662230927497e-05,-8.983215593616478e-06,8.152789087034762e-05
-3.3609660022193566e-05,2.057186975434888e-05,-1.7009480188789894e-06,8.59443171066232e-05
-4.369268935988657e-05,2.399310324108228e-05,2.5233325118279026e-07,8.364862151211128e-05
-4.881564746028744e-05,2.9940540116513148e-05,-1.703632847238623e-06,7.773943070787936e-05
-4.5431301259668544e-05,3.593808287405409e-05,7.773618904138857e-07,7.485518290195614e-05
-3.6671790439868346e-05,4.455887392396107e-05,9.554266398481559e-06,7.606149301864207e-05
-3.227592969778925e-05,5.209200026001781e-05,1.4732582712895237e-05,7.765516056679189e-05
-3.2465963158756495e-05,5.279471952235326e-05,1.0441966878715903e-05,7.841827755328268e-05
-3.146879680571146e-05,4.9697195208864287e-05,6.221532089512039e-07,7.951359293656424e-05
-2.8205347916809842e-05,5.08515840920154e-05,-5.340425559552386e-06,7.982889655977488e-05
-2.5556802938808687e-05,5.699539542547427e-05,-4.045092737214873e-06,7.758720312267542e-05
-2.297937862749677e-05,6.321963155642152e-05,3.4540713045316807e-07,7.442200148943812e-05
-1.884702760435175e-05,6.188444967847317e-05,6.049572220945265e-06,7.413590356009081e-05
-1.9675955627462827e-05,5.9199104725848883e-05,1.3236164704721887e-05,7.460155757144094e-05
-2.7529315048013814e-05,6.078118531149812e-05,1.937046727107372e-05,7.200911932159215e-05
-3.530893809511326e-05,6.126931839389727e-05,1.8249425920657814e-05,6.732763722538948e-05
-3.749118695850484e-05,5.098370820633136e-05,6.786197445762809e-06,6.465720798587427e-05
-3.695367195177823e-05,2.5752686269697733e-05,-5.9152926041861065e-06,6.494488479802385e-05
-3.563921563909389e-05,5.972904546069913e-06,-9.888010026770644e-06,6.123165803728625e-05
-2.8041285986546427e-05,6.910682714078575e-06,-9.899220458464697e-06,5.633574619423598e-05
-1.7882844986161217e-05,2.189415317843668e-05,-1.6015706933103502e-05,6.136344745755196e-05
-1.5449999409611337e-05,4.5760054490529e-05,-2.2590860680793412e-05,6.66423948132433e-05
-2.1218012989265844e-05,6.564005161635578e-05,-2.0140903870924376e-05,6.4025167375803e-05
-2.578455678303726e-05,6.896253034938127e-05,-1.2857717592851259e-05,6.140611367300153e-05
-2.4198305254685692e-05,5.6991877499967813e-05,-9.813011274673045e-06,6.0110360209364444e-05
-1.9120618162560277e-05,5.092750143376179e-05,-1.1702689334924798e-05,6.357029633363709e-05
-1.877648537629284e-05,5.246882210485637e-05,-1.3927727195550688e-05,6.361264240695164e-05
-2.554209277150221e-05,5.5369819165207446e-05,-1.6091978977783583e-05,6.094315540394746e-05
-3.456859485595487e-05,5.424058690550737e-05,-1.5443145457538776e-05,5.998670167173259e-05
-4.20730393670965e-05,3.868466228595935e-05,-1.3451682207232807e-05,6.037038838258013e-05
-4.171157706878148e-05,1.4313648534880485e-05,-1.2274406799406279e-05,6.328062590910122e-05
-3.523868144839071e-05,-8.839004294713959e-06,-1.1072272172896191e-05,6.663917883997783e-05
-3.329333776491694e-05,-2.485299228283111e-05,-9.541922736389097e-06,6.605031376238912e-05
-3.936076973332092e-05,-2.1761063180747442e-05,-5.890916781936539e-06,5.870461609447375e-05
-4.431745401234366e-05,9.691056220617611e-06,-1.5644255881852587e-06,5.249085006653331e-05
-3.9600687159691006e-05,5.4717587772756815e-05,2.958410050268867e-06,5.333991794032045e-05
-2.3193604647531174e-05,8.483837154926732e-05,1.1571141840249766e-05,6.284411938395351e-05
-5.067061465524603e-06,7.964138785609975e-05,1.8866301616071723e-05,7.5594121881295e-05
2.999545586135355e-06,4.1253064409829676e-05,1.328797316091368e-05,8.146908658090979e-05
1.7770474869394093e-06,-1.813846938603092e-05,-6.5032972997869365e-06,7.408820238197222e-05
-3.4249742384417914e-06,-7.54103166400455e-05,-2.7248401238466613e-05,6.07053552812431e-05
-9.780414075066801e-06,-9.408134064869955e-05,-3.1494488212047145e-05,5.392156890593469e-05
-1.7099755496019498e-05,-6.48113782517612e-05,-2.3541068003396504e-05,5.885454811505042e-05
-2.667144508450292e-05,-2.4709788704058155e-05,-1.9866622096742503e-05,6.336062506306916e-05
-3.621916039264761e-05,2.211096216342412e-06,-2.356669574510306e-05,6.01458377786912e-05
-3.8455389585578814e-05,1.9934164811274968e-05,-2.312290780537296e-05,5.381144364946522e-05
-2.917855636042077e-05,3.941151953767985e-05,-1.33472340166918e-05,5.0700880819931626e-05
-2.043926178885158e-05,6.528352969326079e-05,-4.991538389731431e-06,5.40057044418063e-05
-1.985299059015233e-05,8.163502207025886e-05,-1.1573935807973612e-05,5.729501572204754e-05
-2.5965469831135124e-05,6.993577699176967e-05,-2.7429328838479705e-05,5.39936481800396e-05
-3.3919808629434556e-05,3.0661438358947635e-05,-3.6400433600647375e-05,5.001089084544219e-05
-3.322936026961543e-05,-6.555662821483565e-07,-3.6218065361026675e-05,4.9804861191660166e-05
-2.742752621998079e-05,-5.235938260739204e-07,-3.40389997290913e-05,5.096101449453272e-05
-3.0080911528784782e-05,1.0277502951794304e-05,-3.6199424357619137e-05,5.077748210169375e-05
-3.31538867612835e-05,1.474891814723378e-05,-4.0953826101031154e-05,5.04487834405154e-05
-2.5877408916130662e-05,9.980128197639715e-06,-4.159162926953286e-05,5.19523564435076e-05
-1.6330679500242695e-05,1.7470389138907194e-05,-2.811498416122049e-05,5.248936577118002e-05
-1.1965425983362366e-05,4.730146974907257e-05,-2.6728801003628178e-06,5.052487176726572e-05
-1.2957341823494062e-05,7.150300370994955e-05,1.7976628441829234e-05,4.859671025769785e-05
-1.3135540939401835e-05,6.555161235155538e-05,1.9799728761427104e-05,4.963942046742886e-05
-1.1883142178703565e-05,3.615847890614532e-05,6.22497645963449e-06,4.9234953621635213e-05
-1.1869280569953844e-05,6.924336958036292e-06,-9.653673259890638e-06,4.770635860040784e-05
-1.2184361366962548e-05,-2.563347607065225e-06,-1.4290167200670112e-05,4.9054669943870977e-05
-9.958243936125655e-06,1.2746514585160185e-05,-5.856986717844848e-06,5.240861719357781e-05
-7.605649898323463e-06,4.202045238343999e-05,4.218864432914415e-06,5.572918234975077e-05
-8.532967513019685e-06,7.112103776307777e-05,6.800205937906867e-06,5.974643136141822e-05
-1.2094074918422848e-05,8.654387784190476e-05,1.0302329656042275e-06,6.202539952937514e-05
-1.5587638699798845e-05,8.209866064134985e-05,-1.0402717634860892e-05,5.827298082294874e-05
-1.9052129573537968e-05,6.27127374173142e-05,-2.1178204406169243e-05,5.260159377939999e-05
-2.4043414668994956e-05,4.022593566332944e-05,-2.6159705157624558e-05,5.25982650287915e-05
-3.247373388148844e-05,1.4708544767927378e-05,-2.692612360988278e-05,5.344183955457993e-05
-3.8957037759246305e-05,-2.573576011855039e-06,-2.7381969630368985e-05,5.297060124576092e-05
-3.705335984705016e-05,1.8881353298638714e-06,-3.10771974909585e-05,5.279116885503754e-05
-3.160668347845785e-05,-7.2063908191921655e-06,-3.594217560021207e-05,4.975684714736417e-05
-3.0334520488395356e-05,-3.2956730137811974e-05,-4.0451737731928006e-05,4.7344929043902084e-05
-3.128771641058847e-05,-4.8710087867220864e-05,-3.876566916005686e-05,4.89866579300724e-05
-2.85614951280877e-05,-5.442284600576386e-05,-2.958621371362824e-05,4.97673790960107e-05
-2.3726352083031088e-05,-5.224221240496263e-05,-1.7345553715131246e-05,4.639072358259e-05
-1.966049603652209e-05,-4.4964264816371724e-05,-9.012265763885807e-06,4.131347668590024e-05
-1.6958603737293743e-05,-2.7303054594085552e-05,-3.9175320125650615e-06,4.1110914025921375e-05
-1.5777983207954094e-05,-7.374785582214827e-06,1.0318447039026069e-06,4.3519234168343246e-05
-1.6264873920590617e-05,1.567263279866893e-05,1.4132477190287318e-05,4.7281133447540924e-05
-1.6412053810199723e-05,4.1408951801713556e-05,2.867753937607631e-05,5.4059775720816106e-05
-1.5391891793115065e-05,6.711969035677612e-05,2.622179272293579e-05,5.504710497916676e-05
-1.5389805412269197e-05,7.635973452124745e-05,8.738791620999109e-06,4.739017094834708e-05
-2.051445517281536e-05,6.167705578263849e-05,-9.716530257719569e-06,3.667990313260816e-05
-2.8686841687886044e-05,4.160604294156656e-05,-1.8243346858071163e-05,3.196642137481831e-05
-3.519417441566475e-05,3.590370761230588e-05,-1.734803299768828e-05,3.5429020499577746e-05
-3.731639662873931e-05,4.149676897213794e-05,-1.4738843674422242e-05,4.383814666653052e-05
-3.731202377821319e-05,3.84390186809469e-05,-1.6322272131219506e-05,4.992036338080652e-05
-3.925673809135333e-05,2.4046354155871086e-05,-1.5406958482344635e-05,5.0328453653492033e-05
-4.271823854651302e-05,9.408417099621147e-06,-1.0727730114012957e-05,4.766361234942451e-05
-4.348711809143424e-05,3.651042561614304e-07,-1.0028863471234217e-05,4.756891939905472e-05
-3.884082616423257e-05,-9.193153346132021e-06,-1.5972294931998476e-05,5.218562364461832e-05
-2.9641438231919892e-05,-1.8280816220794804e-05,-2.2353178792400286e-05,5.6961289374157786e-05
-2.2323676603264175e-05,-2.9128701498848386e-05,-2.3363867512671277e-05,6.064633998903446e-05
-2.0328694517957047e-05,-3.179742270731367e-05,-1.8553464542492293e-05,6.517473957501352e-05
-1.9175389752490446e-05,-1.4658287000202108e-05,-1.007233095151605e-05,7.020766497589648e-05
-2.1711834051529877e-05,1.0744515748228878e-05,-5.578627337854414e-08,7.338294381042942e-05
-3.064508564420976e-05,2.5088282200158574e-05,-3.694053702929523e-06,6.989583926042542e-05
-4.065844041178934e-05,3.0513723686453886e-05,-2.4553464754717425e-05,6.363756983773783e-05
-4.5976968976901844e-05,3.722140536410734e-05,-3.648542769951746e-05,6.245617259992287e-05
-4.298324347473681e-05,4.851173798670061e-05,-2.914487231464591e-05,6.246184057090431e-05
-3.656873377622105e-05,4.792426261701621e-05,-1.3026176020503044e-05,6.267770368140191e-05
-3.373476647539064e-05,3.56756427208893e-05,9.76761475612875e-06,6.453276728279889e-05
-3.549879329511896e-05,3.0368306397576816e-05,3.2761836337158456e-05,6.645308894803748e-05
-3.7787594919791445e-05,3.563108475646004e-05,4.1977124055847526e-05,6.813438085373491e-05
-3.394315717741847e-05,4.1181450797012076e-05,3.657631896203384e-05,6.895191472722217e-05
-3.0282031730166636e-05,4.829668250749819e-05,2.626332025101874e-05,6.749651220161468e-05
-2.980254248541314e-05,6.547135126311332e-05,1.4439945516642183e-05,6.680405203951523e-05
-2.9099523089826107e-05,7.995662599569187e-05,1.8035169659924577e-06,6.933963595656678e-05
-2.7704425519914366e-05,7.702035509282723e-05,-8.94396271178266e-06,7.194585487013683e-05
-2.6489618903724477e-05,5.987517943140119e-05,-1.405769944540225e-05,7.226649904623628e-05
-2.622700594656635e-05,3.909360748366453e-05,-1.583587800269015e-05,7.285835454240441e-05
-2.6143568902625702e-05,2.6833638912648894e-05,-1.818594137148466e-05,7.051933789625764e-05
-2.6733898266684264e-05,3.384838782949373e-05,-1.967523894563783e-05,6.411951471818611e-05
-2.8391594241838902e-05,6.167338870000094e-05,-1.6790694644441828e-05,5.810856964671984e-05
-3.241434387746267e-05,9.536969446344301e-05,-1.1271089533693157e-05,5.3742311138194054e-05
-3.887966158799827e-05,0.00010859398753382266,-9.85555107035907e-06,4.9653364840196446e-05
-4.454009103938006e-05,9.402556315762922e-05,-1.4119547813606914e-05,4.8099496780196205e-05
-4.591602919390425e-05,6.47958368062973e-05,-2.3261212845682167e-05,4.915087265544571e-05
-4.2849289457080886e-05,3.4172855521319434e-05,-3.0304361644084565e-05,5.101868009660393e-05
-3.6363606341183186e-05,6.367379683069885e-06,-3.023477256647311e-05,5.368020720197819e-05
-2.5913344870787114e-05,-1.7354162991978228e-05,-2.748865335888695e-05,5.576854891842231e-05
-1.5417381291626953e-05,-3.854849637718871e-05,-2.8354304959066212e-05,5.7632038078736514e-05
-1.621761293790769e-05,-5.029002204537392e-05,-2.875584686989896e-05,6.003603266435675e-05
-2.2262311176746152e-05,-4.230297781759873e-05,-2.1174866560613737e-05,6.35680989944376e-05
-2.2112721126177348e-05,-2.8276284865569323e-05,-1.7446732272219379e-06,6.855907122371718e-05
-2.185078483307734e-05,-3.579958502086811e-05,2.090075213345699e-05,7.297631964320317e-05
-2.5056817321456037e-05,-5.772104123025201e-05,3.090259269811213e-05,6.975708674872294e-05
-2.9232813176349737e-05,-6.200821371749043e-05,2.281204615428578e-05,5.8640674978960305e-05
-3.467809074209072e-05,-4.360618186183274e-05,5.6880548982007895e-06,4.941242150380276e-05
-3.801340426434763e-05,-2.98871636914555e-05,-7.908924999355804e-06,4.798653753823601e-05
-3.503482002997771e-05,-2.198245420004241e-05,-1.6777108612586744e-05,5.070853148936294e-05
-2.8858023142674938e-05,4.404032097227173e-06,-2.06406712095486e-05,5.821462764288299e-05
-2.153500827262178e-05,4.402989725349471e-05,-1.8634191292221658e-05,6.761321128578857e-05
-1.6475223674206063e-05,6.885617040097713e-05,-1.3196136023907457e-05,7.724740862613544e-05
-2.1733598259743303e-05,7.158514927141368e-05,-9.174476872431114e-06,8.723400969756767e-05
-3.0217574021662585e-05,6.359982944559306e-05,-9.319603123003617e-06,9.27009095903486e-05
-3.435011240071617e-05,5.597947892965749e-05,-1.1466069736343343e-05,9.19126468943432e-05
-3.4239263186464086e-05,4.965025436831638e-05,-1.4625652511313092e-05,8.681282633915544e-05
-3.1906783988233656e-05,3.882832970703021e-05,-1.6394751582993194e-05,7.842694321880117e-05
-3.09974275296554e-05,2.2010608518030494e-05,-1.700341272226069e-05,6.722589751007035e-05
-3.204973472747952e-05,6.1264580075715e-09,-1.971203528228216e-05,5.719396358472295e-05
-3.1132178264670074e-05,-1.899659946502652e-05,-2.4731907615205273e-05,4.975756019121036e-05
-2.402443169557955e-05,-1.594568857399281e-05,-2.731818676693365e-05,3.532625487423502e-05
-1.598571179783903e-05,1.3256241800263524e-05,-2.3863103706389666e-05,5.793404852738604e-06
-1.2140991202613804e-05,4.694231029134244e-05,-1.3244990441307891e-05,-1.6314357708324678e-05
-1.0912299330811948e-05,6.84038459439762e-05,4.1009883489095955e-07,-4.839267148781801e-06
-9.983269592339639e-06,7.232652569655329e-05,3.5745395052799722e-06,2.3110678739612922e-05
-1.0496767572476529e-05,6.312470213742927e-05,-6.03765784035204e-06,4.1795206925598904e-05
-6.353893240884645e-06,4.70170853077434e-05,-1.2004413292743266e-05,4.9913065595319495e-05
1.1194122635060921e-05,3.94238049921114e-05,-8.019573215278797e-06,5.339990457287058e-05
3.093449413427152e-05,4.631129195331596e-05,-4.353239091869909e-06,5.834025432704948e-05
3.0127384889055975e-05,5.017816147301346e-05,-9.247234629583545e-06,6.168351683299989e-05
1.3978869901620783e-05,4.2686911911005154e-05,-1.68582919286564e-05,6.570749974343926e-05
-3.428007460115623e-07,2.9801683922414668e-05,-2.0616444089682773e-05,7.678168185520917e-05
-1.3966796359454747e-05,2.3108501409296878e-05,-2.2351778170559555e-05,9.175719605991617e-05
-2.8592728995135985e-05,2.158937968488317e-05,-2.197361936850939e-05,0.00010543131065787748
-4.276563777239062e-05,2.0967381715308875e-05,-1.8045186152448878e-05,0.00011526526213856414
-5.5292228353209794e-05,2.6219293431495316e-05,-9.831442184804473e-06,0.00011884309788001701
-6.284580740612e-05,3.269453736720607e-05,-6.3340125961985905e-06,0.00011312333663227037
-6.670052243862301e-05,2.997696901729796e-05,-8.810642611933872e-06,9.884942846838385e-05
-6.920802115928382e-05,1.5949826774885878e-05,-1.0629649295879062e-05,8.348013943759724e-05
-6.729622691636905e-05,4.83671192341717e-06,-1.0762878446257673e-05,7.270205242093652e-05
-5.8688547142082825e-05,9.261598279408645e-06,-1.1373852430551779e-05,6.277124339248985e-05
-4.900709609501064e-05,2.06618060474284e-05,-1.440581945644226e-05,4.773596447193995e-05
-4.078483107150532e-05,2.3723596314084716e-05,-1.7152837244793773e-05,3.028858918696642e-05
-3.112146441708319e-05,1.568355037306901e-05,-1.8012040527537465e-05,1.7387876141583547e-05
-1.9858711311826482e-05,3.7948798308207188e-06,-1.5356536096078344e-05,1.1800238098658156e-05
-9.54484312387649e-06,-3.2326113341696328e-06,-9.245583896699827e-06,1.1706471923389472e-05
-2.9082766559440643e-06,-2.51675010076724e-06,-4.050355528306682e-06,8.169678039848804e-06
-1.788755668030717e-07,1.0383257631474407e-06,-3.4253857847943436e-06,-2.809284751492669e-06
1.0692673413359444e-06,1.695668629508873e-06,-9.138278983300552e-06,-1.3835327081324067e-05
2.324678462173324e-06,1.052466245710093e-06,-2.0697698346339166e-05,-1.812305890780408e-05
3.6063825064047705e-06,1.2356094885035418e-06,-2.9340246328501962e-05,-1.3268606380734127e-05
1.799856136130984e-06,4.5967135520186275e-06,-3.0420831535593607e-05,2.872073423532129e-07
-8.573471177442116e-07,8.532079846190754e-06,-2.762720760074444e-05,1.5906416592770256e-05
-3.259920504206093e-06,6.754529749741778e-06,-2.36420219152933e-05,2.4706439944566227e-05
-9.853773008217104e-06,4.534186359705927e-09,-1.925475589814596e-05,2.800504989863839e-05
-1.3694910194317345e-05,9.437483186047757e-07,-7.802314939908683e-06,3.8029043935239315e-05
-1.438993240299169e-05,2.3873159079812467e-05,1.6079746274044737e-05,5.785773100797087e-05
-1.945708027051296e-05,6.057557402527891e-05,3.59727673640009e-05,7.822755287634209e-05
-2.3239927031681873e-05,8.803755918052047e-05,3.9804835978429765e-05,8.544611773686484e-05
-2.0617748305085115e-05,9.158375905826688e-05,3.067535362788476e-05,8.125385647872463e-05
-2.372484414081555e-05,8.653305849293247e-05,1.7526885130791925e-05,7.408994133584201e-05
-3.223285239073448e-05,8.350496500497684e-05,1.3973599379824009e-05,7.313585956580937e-05
-3.5721306630875915e-05,8.257148147094995e-05,2.0548583052004687e-05,8.207986684283242e-05
-3.240187652409077e-05,7.803492189850658e-05,2.5658056983957067e-05,9.276469063479453e-05
-2.9134173018974252e-05,6.777822272852063e-05,1.783950938261114e-05,0.00010069923155242577
-3.149847543681972e-05,6.071972893550992e-05,3.9870724322099704e-06,0.00010248133912682533
-3.961707261623815e-05,5.512821735464968e-05,-7.655873559997417e-06,0.00010132744500879198
-4.961554805049673e-05,5.0557540816953406e-05,-1.145206351793604e-05,9.929307270795107e-05
-5.256489748717286e-05,4.501588045968674e-05,-7.660576557100285e-06,9.598029282642528e-05
-4.6595789171988145e-05,4.098289355169982e-05,-1.1019540124834748e-06,9.315386705566198e-05
-3.641541115939617e-05,3.9169928641058505e-05,1.743741222526296e-06,9.437886183150113e-05
-2.799561116262339e-05,3.5186323657399043e-05,-2.8568510970217176e-06,0.00010063595982501283
