-2.8293648938415572e-05,-3.6265522794565186e-05,-4.714021088148002e-06,5.2094848797423765e-05
-2.8952103093615733e-05,-2.4352058971999213e-05,-3.9126911133280373e-07,4.969962174072862e-05
-3.1505271181231365e-05,4.779626124218339e-06,1.6942193497015978e-06,5.054002394899726e-05
-3.253846807638183e-05,3.307381848571822e-05,7.819563506927807e-06,5.049046376370825e-05
-3.103653943981044e-05,4.7017128963489085e-05,1.182099094876321e-05,4.85633900098037e-05
-2.903220411099028e-05,5.9614027122734115e-05,9.166803465632256e-06,5.279113247524947e-05
-2.62430876318831e-05,8.793008601060137e-05,5.121592494106153e-06,5.947010140516795e-05
-2.3743614292470738e-05,0.00010775027476483956,1.90926471077546e-06,5.5929922382347286e-05
-2.398993819952011e-05,8.401970262639225e-05,-4.001216439064592e-06,4.905953028355725e-05
-2.2641177565674298e-05,3.0018887628102675e-05,-1.101909492717823e-05,4.7758661821717396e-05
-1.8639155314303935e-05,-7.849461326259188e-06,-1.8638880646904e-05,5.1309270929777995e-05
-1.81806790351402e-05,-9.172841600957327e-06,-2.368410241615493e-05,5.4602780437562615e-05
-2.043100721493829e-05,1.5047203305584844e-05,-2.4287674023071304e-05,5.52408819203265e-05
-2.0601497453753836e-05,5.452678306028247e-05,-2.0104031136725098e-05,5.294361835694872e-05
-2.016191319853533e-05,9.977759327739477e-05,-1.7538397514726967e-05,4.9866117478813976e-05
-2.188960752391722e-05,0.00012855428212787956,-1.8902484953287058e-05,4.8838839575182647e-05
-2.2663536583422683e-05,0.00012039404828101397,-1.830325709306635e-05,4.756191265187226e-05
-2.2109938072389923e-05,8.492785127600655e-05,-1.4210133485903498e-05,4.5281092752702534e-05
-2.2394033294403926e-05,4.9913491238839924e-05,-1.1617347809078638e-05,4.609037932823412e-05
-2.198037509515416e-05,2.3162552679423243e-05,-1.2619600056495983e-05,4.882405119133182e-05
-2.037333615589887e-05,-6.576894065801753e-06,-1.2343849448370747e-05,4.991480091121048e-05
-2.1903553715674207e-05,-4.159899617661722e-05,-1.0628258678480051e-05,5.294299990055151e-05
-2.7124315238324925e-05,-7.29873136151582e-05,-1.151614105765475e-05,5.755899110226892e-05
-2.888287417590618e-05,-8.883883128874004e-05,-1.4424836990656331e-05,5.8263816754333675e-05
-2.313587538083084e-05,-8.964609878603369e-05,-1.3696783753402997e-05,5.35811523150187e-05
-1.7325279259239323e-05,-8.239937596954405e-05,-1.0284320524078794e-05,5.155359394848347e-05
-1.6635889551253058e-05,-7.213760545710102e-05,-1.0191547517024446e-05,5.556301766773686e-05
-2.1789996026200242e-05,-6.148521788418293e-05,-1.5191372767731082e-05,5.763470471720211e-05
-2.889603092626203e-05,-4.10040702263359e-05,-1.488541965954937e-05,5.582939775194973e-05
-3.062909672735259e-05,-7.969065336510539e-06,-1.1379944226064254e-05,5.489769682753831e-05
-2.9131353585398756e-05,1.869091283879243e-05,-1.3664052858075593e-05,5.362503361538984e-05
-2.7608279197011143e-05,1.491822513344232e-05,-1.4924628885637503e-05,5.2818344556726515e-05
-2.4279588615172543e-05,-7.012007245066343e-06,-1.6967247574939393e-05,5.505157241714187e-05
-2.20610381802544e-05,-1.3304088497534394e-05,-1.9130297005176544e-05,5.7635199482319877e-05
-2.4464698071824387e-05,9.44431758398423e-06,-1.9163366232533008e-05,5.567433254327625e-05
-2.861255779862404e-05,4.6081317123025656e-05,-2.021890577452723e-05,5.261386831989512e-05
-2.8756840038113296e-05,7.732117956038564e-05,-2.3301628971239552e-05,5.458777377498336e-05
-2.73742825811496e-05,9.228465205524117e-05,-2.5333758458145894e-05,5.868632433703169e-05
-3.020553594978992e-05,7.436578744091094e-05,-2.1295745682436973e-05,5.9035908634541556e-05
-3.173201184836216e-05,2.5530114726279862e-05,-1.7174159438582137e-05,5.58338979317341e-05
-2.9563992939074524e-05,-1.7237411157111637e-05,-1.7908441805047914e-05,5.2480452723102644e-05
-2.8142632800154388e-05,-2.0374543964862823e-05,-1.967793832591269e-05,5.081225390313193e-05
-2.9027974960627034e-05,6.392296199919656e-06,-1.8827013263944536e-05,5.094043808639981e-05
-3.0913182854419574e-05,3.415881292312406e-05,-1.702270128589589e-05,5.285924271447584e-05
-3.280158853158355e-05,4.9406451580580324e-05,-1.4525586266245227e-05,5.365260221878998e-05
-3.1836334528634325e-05,5.2307303121779114e-05,-9.93986577668693e-06,5.2923220209777355e-05
-2.7826448786072433e-05,4.542865281109698e-05,-2.241725951535045e-06,5.400346708483994e-05
-2.3833197701605968e-05,3.8479243812616915e-05,2.7209080144530162e-06,5.5849639466032386e-05
-2.196559216827154e-05,3.0314806281239726e-05,3.6044455100636696e-06,5.664108175551519e-05
-2.1889245545025915e-05,1.0919071428361349e-05,6.893782938277582e-06,6.066069545340724e-05
-1.849215550464578e-05,8.394434189540334e-06,1.2476185474952217e-05,6.840019341325387e-05
-1.0967501111736055e-05,4.480305506149307e-05,1.1282682862656657e-05,7.070264109643176e-05
-4.40727762907045e-06,8.921020344132558e-05,1.6930056290220818e-06,6.562929775100201e-05
-2.7434117555458215e-07,0.00010463843500474468,-4.88303521706257e-06,5.9079902712255716e-05
-3.4975546441273764e-06,8.378268830711022e-05,-1.1196542800462339e-05,5.760134445154108e-05
-9.521771062281914e-06,5.743521614931524e-05,-2.0025143385282718e-05,5.924037759541534e-05
-1.15875755000161e-05,6.867790216347203e-05,-2.5954945158446208e-05,5.871090615983121e-05
-1.3602245417132508e-05,9.91687920759432e-05,-2.7424721338320524e-05,5.619101648335345e-05
-1.6172052710317075e-05,6.79053773637861e-05,-2.7456060706754215e-05,5.9294008678989485e-05
-1.9993280147900805e-05,-1.4428983377001714e-05,-2.5757028197403997e-05,6.220153591129929e-05
-2.2854497728985734e-05,-6.0213969845790416e-05,-1.8718259525485337e-05,5.910022446187213e-05
-2.2070922568673268e-05,-4.161402102909051e-05,-1.3730420505453367e-05,5.808839705423452e-05
-1.872284701676108e-05,4.244835508870892e-06,-1.1555053788470104e-05,5.968785990262404e-05
-1.9785451513598673e-05,3.2224150345427915e-05,-8.94507047632942e-06,6.489536463050172e-05
-2.3383001462207176e-05,4.242411523591727e-05,-4.590063781506615e-06,6.994690193096176e-05
-2.588134339021053e-05,4.5887292799307033e-05,-2.410548063380702e-07,6.959158054087311e-05
-2.6537663870840333e-05,5.0371207180432975e-05,2.2565079405012511e-07,6.827791366958991e-05
-2.529676930862479e-05,5.294382572174072e-05,-2.513353592803469e-06,6.867649062769488e-05
-2.3203983801067807e-05,4.730480213765986e-05,-4.462535798666067e-06,6.378490797942504e-05
-2.3135158699005842e-05,2.2020914911990985e-05,-5.497510755958501e-06,5.43074966117274e-05
-2.6109350073966198e-05,-2.1665073290932924e-05,-6.633876637351932e-06,4.8698377213440835e-05
-2.8937525712535717e-05,-5.400948430178687e-05,-8.27000621939078e-06,4.724964310298674e-05
-2.9588638426503167e-05,-5.2267034334363416e-05,-1.0570935046416707e-05,4.7284571337513626e-05
-2.777392728603445e-05,-3.409977944102138e-05,-8.884737326297909e-06,4.845621151616797e-05
-2.784555181278847e-05,-1.6505808162037283e-05,-5.240232439973624e-06,4.934514799970202e-05
-3.0436416636803187e-05,1.1269527021795511e-05,-1.7633167317399057e-06,4.74727748951409e-05
-3.245388143113814e-05,4.26860133302398e-05,5.72124054087908e-06,4.73458094347734e-05
-3.220705548301339e-05,6.690425652777776e-05,1.8274153262609616e-05,5.216986028244719e-05
-3.355167427798733e-05,8.412661554757506e-05,2.52470654231729e-05,5.602495002676733e-05
-3.299462332506664e-05,8.924579742597416e-05,1.764658372849226e-05,5.673892155755311e-05
-2.939313526439946e-05,8.46580951474607e-05,3.879490577674005e-06,5.6730801588855684e-05
-2.5018976884894073e-05,9.028648491948843e-05,-4.02487466999446e-06,5.7019544328795746e-05
-2.2418793378164992e-05,9.134690481005237e-05,-4.655333668779349e-06,5.794219032395631e-05
-2.4744516849750653e-05,4.852015990763903e-05,-3.851382643915713e-06,6.134080467745662e-05
-2.7143763873027638e-05,-1.9604683984653093e-05,-6.496958121715579e-06,6.551958358613774e-05
-2.7585376301431097e-05,-5.560390854952857e-05,-7.679290320083965e-06,6.86560888425447e-05
-2.935800512204878e-05,-4.123321195947938e-05,-5.78227627556771e-06,7.157287473091856e-05
-2.954206138383597e-05,-3.38770746566297e-06,-5.346794750948902e-06,6.906960334163159e-05
-2.7118954676552676e-05,1.5433330190717243e-05,-9.898465577862225e-06,6.460560689447448e-05
-2.6401625291327946e-05,9.846638931776397e-06,-1.4528369320032652e-05,6.349979958031327e-05
-2.687787127797492e-05,-2.620030954858521e-06,-1.5555518984911032e-05,6.474283873103559e-05
-2.997034061991144e-05,-6.7029786805505864e-06,-1.365481239190558e-05,6.464622856583446e-05
-3.3971598895732313e-05,1.4651743640570203e-07,-1.0791954991873354e-05,6.159639451652765e-05
-3.688837750814855e-05,1.747951318975538e-05,-9.154499821306672e-06,6.0004709666827694e-05
-3.660455331555568e-05,3.777488018386066e-05,-8.037324732868001e-06,5.954626976745203e-05
-3.366734381415881e-05,4.9490408855490386e-05,-9.711675375001505e-06,5.835909541929141e-05
-3.233144525438547e-05,5.112756116432138e-05,-1.4083012501941994e-05,5.648747173836455e-05
-3.199598359060474e-05,4.929182250634767e-05,-1.7342681530863047e-05,5.6297063565580174e-05
-2.98611048492603e-05,4.8887613957049325e-05,-1.724547655612696e-05,5.820373189635575e-05
-2.7360945750842802e-05,4.469537452678196e-05,-1.5534058547927998e-05,6.180094351293519e-05
-2.570675133028999e-05,3.642105366452597e-05,-1.2965173482371029e-05,6.21569124632515e-05
-2.4182223569368944e-05,3.280875171185471e-05,-9.688881618785672e-06,5.769188646809198e-05
-2.5418572477065027e-05,3.849712447845377e-05,-6.085324457671959e-06,5.5936390708666295e-05
-2.820190456986893e-05,4.133281618123874e-05,-3.937704605050385e-06,6.015463077346794e-05
-3.348407335579395e-05,3.377781467861496e-05,-3.398763738005073e-06,6.490913801826537e-05
-3.4937904274556786e-05,1.7420947187929414e-05,-5.807444267702522e-06,6.657761696260422e-05
-2.8433676561689936e-05,6.940632374607958e-06,-1.0091046533489134e-05,6.580895569641143e-05
-2.3937707737786695e-05,-4.1005346247402485e-06,-1.3797929568681866e-05,6.672342715319246e-05
-2.432501241855789e-05,-1.1078162970079575e-05,-1.6364356270059943e-05,6.864053284516558e-05
-2.2443166017183103e-05,1.2260481526027434e-05,-1.4311637642094865e-05,6.697028584312648e-05
-2.059958569589071e-05,5.226801658864133e-05,-1.1801582331827376e-05,6.352874333970249e-05
-2.437652619846631e-05,6.308661977527663e-05,-1.0829651728272438e-05,5.835517731611617e-05
-2.6853960662265308e-05,1.652282298891805e-05,-8.243322554335464e-06,5.6203669373644516e-05
-2.5067518436117098e-05,-6.409932393580675e-05,-8.13515634945361e-06,5.942011557635851e-05
-2.464375938870944e-05,-0.00012007321493001655,-8.715330295672175e-06,6.1028469644952565e-05
-2.9224744139355607e-05,-9.780828258953989e-05,-1.206447632284835e-05,5.7354947784915566e-05
-3.298579395050183e-05,-4.606032234732993e-06,-1.787959990906529e-05,5.461845648824237e-05
-3.312086482765153e-05,8.635509584564716e-05,-1.8232389265904203e-05,5.3300529543776065e-05
-2.856598985090386e-05,0.00011556587560335174,-1.0919352462224197e-05,5.1911105401813984e-05
-2.4159640815923922e-05,0.00010095608740812168,-4.292342964618001e-06,4.901578358840197e-05
-2.7449183107819408e-05,8.839351357892156e-05,-7.33487649995368e-06,4.560219167615287e-05
-3.445762922638096e-05,8.86770649231039e-05,-1.4153964912111405e-05,4.532692037173547e-05
-3.6087119951844215e-05,8.907053415896371e-05,-1.8653867300599813e-05,4.770479063154198e-05
-2.9130169423297048e-05,8.031972538447008e-05,-2.001008397201076e-05,5.406003401731141e-05
-2.0110392142669298e-05,6.408587069017813e-05,-1.8624647054821253e-05,6.0769158153561875e-05
-1.3493859114532825e-05,4.703748709289357e-05,-1.3802248759020586e-05,6.23705200268887e-05
-1.265576975129079e-05,3.623278098530136e-05,-1.0358799045206979e-05,6.077806028770283e-05
-1.7558859326527454e-05,3.425887189223431e-05,-1.048113790602656e-05,6.000218490953557e-05
-2.3258462533704005e-05,4.099898069398478e-05,-1.2762032383761834e-05,5.924493962083943e-05
-2.81597222056007e-05,4.8588011850370094e-05,-1.701117435004562e-05,5.9199588577030227e-05
-3.203282903996296e-05,4.853323844145052e-05,-1.894563865789678e-05,6.074583507142961e-05
-2.9939434170955792e-05,4.646863089874387e-05,-1.6052079445216805e-05,6.169900734676048e-05
-2.5136037947959267e-05,5.364956450648606e-05,-1.2938176041643601e-05,5.856031202711165e-05
-2.2451904442277737e-05,7.375290442723781e-05,-1.1218499821552541e-05,5.639826486003585e-05
-2.0026460333610885e-05,7.453753642039374e-05,-1.0019306500907987e-05,5.73351644561626e-05
-2.306898750248365e-05,1.965807496162597e-05,-1.1839752005471382e-05,5.9470374253578484e-05
-3.0283483283710666e-05,-2.1812640625284985e-05,-1.035575769492425e-05,6.110394315328449e-05
-3.141225897707045e-05,3.210333261449705e-06,-5.577743650064804e-06,6.343419227050617e-05
-2.5918687242665328e-05,4.414206705405377e-05,-5.679237801814452e-06,6.498626316897571e-05
-2.1610860130749643e-05,5.951816638116725e-05,-8.935627192840911e-06,6.406452303053811e-05
-2.3343634893535636e-05,4.2750292777782306e-05,-1.1504354915814474e-05,6.565983494510874e-05
-2.6785099180415273e-05,1.433756642654771e-05,-9.470640179642942e-06,6.483090692199767e-05
-3.050406121474225e-05,-1.1907402949873358e-05,-4.128069122089073e-06,5.969828271190636e-05
-3.3255029848078266e-05,-3.400589048396796e-05,-2.713744606808177e-06,5.598006464424543e-05
-3.194173768861219e-05,-5.2943923947168514e-05,-4.997828909836244e-06,5.5664670071564615e-05
-2.6871333830058575e-05,-7.113518950063735e-05,-6.800752544222632e-06,5.6037639296846464e-05
-2.2867290681460872e-05,-8.937051461543888e-05,-5.823950687044999e-06,5.5935466662049294e-05
-2.4629909603390843e-05,-9.786926966626197e-05,-4.376704964670353e-06,5.566466643358581e-05
-3.071003811783157e-05,-8.429129229625687e-05,-3.582691761039314e-06,5.951517232460901e-05
-3.5805365769192576e-05,-4.926670953864232e-05,-3.025979140147683e-06,6.579581531696022e-05
-3.3757682103896514e-05,-8.316895218740683e-06,-2.507033514120849e-06,6.699565710732713e-05
-2.7782902179751545e-05,2.4535982447559945e-05,-2.3010784389043692e-06,6.240881339181215e-05
-2.5125853426288813e-05,4.280737994122319e-05,-5.710727691621287e-06,5.900357064092532e-05
-2.692193811526522e-05,5.0525944971013814e-05,-1.2047797099512536e-05,6.0315043810987845e-05
-2.8597331038326956e-05,5.53399404452648e-05,-1.4755132724530995e-05,6.161270721349865e-05
-3.068253863602877e-05,5.516438977792859e-05,-1.27148196042981e-05,5.8543944760458544e-05
-3.41246668540407e-05,4.7554291086271405e-05,-1.1798213563452009e-05,5.656241410179064e-05
-3.63538674719166e-05,3.470946103334427e-05,-1.2429311937012244e-05,5.962359864497557e-05
-3.6617464502342045e-05,2.437891271256376e-05,-1.2288023754081223e-05,6.130323890829459e-05
-3.5230816138209775e-05,1.3376318747759797e-05,-1.1681422620313242e-05,5.8817378885578364e-05
-3.527380613377318e-05,1.513373319994571e-07,-1.3128755199431907e-05,5.527542089112103e-05
-3.5528843000065535e-05,-9.809885341383051e-06,-1.7735261280904524e-05,5.299007170833647e-05
-3.2435429602628574e-05,-2.5772392291401047e-06,-2.162412965844851e-05,4.787161014974117e-05
-3.231592563679442e-05,2.470874460414052e-05,-2.0048773876624182e-05,4.272501610103063e-05
-3.197103796992451e-05,4.793381958734244e-05,-1.5083348444022704e-05,4.39834657299798e-05
-2.9229082429083064e-05,6.25976754236035e-05,-1.1695305147441104e-05,4.937327321385965e-05
-2.715365008043591e-05,7.752364035695791e-05,-7.995836313057225e-06,5.276644878904335e-05
-2.702665915421676e-05,8.243046613642946e-05,-8.704333595233038e-06,5.1103746955050156e-05
-2.8437640139600262e-05,6.532815314130858e-05,-1.3022440725762863e-05,4.927717964164913e-05
-2.669436980795581e-05,4.1692295781103894e-05,-1.3837745427736081e-05,4.911881478619762e-05
-2.3193615561467595e-05,2.4711893274798058e-05,-1.1766595889639575e-05,4.808312587556429e-05
-1.9981378500233404e-05,5.654500910168281e-06,-9.858866178547032e-06,4.8886162403505296e-05
-2.172027416236233e-05,-6.172541361593176e-06,-1.1475739484012593e-05,4.894936137134209e-05
-2.57755491475109e-05,-1.6637479802739108e-06,-1.3417040463536978e-05,4.731449007522315e-05
-2.879362909880001e-05,5.434816102933837e-06,-1.301453448832035e-05,4.549135337583721e-05
-3.1277108064386994e-05,1.8093724065693095e-06,-1.142078144766856e-05,4.6022651076782495e-05
-3.1560084607917815e-05,2.4110497633955674e-06,-1.1377996997907758e-05,4.706107938545756e-05
-2.9645239919773303e-05,2.2104404706624337e-05,-1.1215014637855347e-05,4.601755426847376e-05
-2.8397009373293258e-05,4.701089346781373e-05,-9.753473932505585e-06,4.6215202019084245e-05
-2.7379830498830415e-05,5.608446372207254e-05,-9.91813612927217e-06,4.975010233465582e-05
-2.474486973369494e-05,4.75819906569086e-05,-1.3604551895696204e-05,5.3220770496409386e-05
-2.241184120066464e-05,3.488335642032325e-05,-1.500112466601422e-05,5.2845440222881734e-05
-2.2827167413197458e-05,3.4040058380924165e-05,-1.0488315638212953e-05,5.198227518121712e-05
-2.6708157747634687e-05,4.4650601921603084e-05,-1.4991708212619415e-06,5.265141589916311e-05
-2.9036869818810374e-05,4.256611646269448e-05,8.304410584969446e-06,5.695207801181823e-05
-2.7532039894140325e-05,1.6181118553504348e-05,1.2722272003884427e-05,6.085457789595239e-05
-2.448736813676078e-05,-2.92975855700206e-05,1.486088785895845e-05,6.2020611949265e-05
-2.147998020518571e-05,-7.17088405508548e-05,1.4886097233102191e-05,6.510672392323613e-05
-1.9612507458077744e-05,-8.069074829109013e-05,9.062076969712507e-06,6.982694321777672e-05
-2.1364425265346654e-05,-4.2990079236915335e-05,9.54171446210239e-06,7.244899461511523e-05
-2.6348521714680828e-05,3.4366381441941485e-05,1.694563434284646e-05,7.008167449384928e-05
-2.6312047339160927e-05,6.870575452921912e-05,1.3649311767949257e-05,6.590330303879455e-05
-2.2461810658569448e-05,2.1477253540069796e-05,2.557037305450649e-06,6.334154022624716e-05
-1.8299022485734895e-05,-1.088276258087717e-05,-8.042915396799799e-06,6.479247531387955e-05
-1.376800901198294e-05,3.8080913782323478e-06,-1.2707552741630934e-05,6.947710789972916e-05
-9.350615982839372e-06,1.4621406990045216e-05,-9.129451427725144e-06,7.139774243114516e-05
-1.021519801724935e-05,1.662710747041274e-05,-3.122928546872572e-06,6.808263424318284e-05
-1.6583438991801813e-05,4.2570725781843066e-05,-2.873351149901282e-06,6.117987504694611e-05
-2.1202531570452265e-05,7.96128369984217e-05,-1.0955295692838263e-05,5.8551973779685795e-05
-2.6264451662427746e-05,9.567279630573466e-05,-2.2275402443483472e-05,5.968115510768257e-05
-2.9178439945098944e-05,8.632989192847162e-05,-3.228804416721687e-05,6.182170182000846e-05
-2.736284841375891e-05,6.362953718053177e-05,-3.70300913346e-05,6.086979919928126e-05
-2.327526999579277e-05,3.867441409965977e-05,-3.617036418290809e-05,5.752102879341692e-05
-2.240691719634924e-05,1.9176532077835873e-05,-3.142627247143537e-05,5.5703036196064204e-05
-2.4914794266805984e-05,1.0329320502933115e-05,-2.577603117970284e-05,5.565015089814551e-05
-2.8692429623333737e-05,1.4612719496653881e-05,-2.2120049834484234e-05,5.743706788052805e-05
-3.055906927329488e-05,2.9648124836967327e-05,-2.101293830492068e-05,5.877147850696929e-05
-3.0525789043167606e-05,4.9370435590390116e-05,-1.7626804037718102e-05,5.981587673886679e-05
-2.930495611508377e-05,7.613421621499583e-05,-1.0369450137659442e-05,6.328316521830857e-05
-2.4686258257133886e-05,0.0001126782299252227,-1.585057702868653e-06,6.965242209844291e-05
-2.0366649550851434e-05,0.00015850839554332197,6.998958724580007e-06,7.170788740040734e-05
-1.9113707821816206e-05,0.00019980773504357785,1.18431980808964e-05,7.024673686828464e-05
-1.8653425286174752e-05,0.00021720259974244982,1.2388905815896578e-05,6.904246401973069e-05
-1.5080002413014881e-05,0.00020118537941016257,7.472364359273342e-06,6.953070987947285e-05
-1.073282601282699e-05,0.0001524914550827816,-1.2588919844347402e-06,7.199313404271379e-05
-7.93215622252319e-06,5.0004317017737776e-05,-1.202624298457522e-05,7.57709494791925e-05
-8.987771252577659e-06,-0.00013444323849398643,-2.0022042008349672e-05,7.713749801041558e-05
-1.388467353535816e-05,-0.00023930381576064974,-2.025501999014523e-05,7.389763777609915e-05
-1.6590964150964282e-05,-0.0001557300129206851,-1.870657979452517e-05,7.330815424211323e-05
-1.7787690012482926e-05,-2.477658745192457e-05,-1.583740049682092e-05,7.727763295406476e-05
-2.0478275473578833e-05,2.8147895136498846e-05,-1.3380268683249597e-05,7.751102384645492e-05
-2.360593862249516e-05,-1.1390951840439811e-05,-1.6425665307906456e-05,7.37359732738696e-05
-2.398970718786586e-05,-6.387952453223988e-05,-1.9196944776922464e-05,7.013999857008457e-05
-2.0535499061224982e-05,-0.000102729864011053,-1.9554869140847586e-05,6.64710023556836e-05
-2.1699117496609688e-05,-0.00012455787509679794,-2.1943005776847713e-05,6.242360541364178e-05
-2.6991318009095266e-05,-0.00012093508121324703,-2.4561448299209587e-05,6.003470844007097e-05
-3.101021138718352e-05,-8.304414950544015e-05,-2.3544716896140017e-05,6.167741230456159e-05
-3.2640462450217456e-05,-2.9448130590026267e-05,-1.9344141037436202e-05,6.137550371931866e-05
-3.2184285373659804e-05,1.3171434147807304e-05,-1.6006997611839324e-05,5.815644544782117e-05
-3.1932690035318956e-05,3.9863414713181555e-05,-1.6406509530497715e-05,5.5182859796332195e-05
-3.2691827072994784e-05,5.509212860488333e-05,-1.8431728676659986e-05,5.3479481721296906e-05
-3.555103103280999e-05,6.804471922805533e-05,-1.6716108802938834e-05,5.504879300133325e-05
-3.829149864031933e-05,7.90714257163927e-05,-1.1852041097881738e-05,6.040963489795104e-05
-3.643695526989177e-05,9.178055915981531e-05,-8.735767551115714e-06,6.390516500687227e-05
-2.8860140446340665e-05,9.110096289077774e-05,-1.0001348528021481e-05,6.385185406543314e-05
-2.0129326003370807e-05,6.256969209061936e-05,-1.1169732715643477e-05,6.504482007585466e-05
-1.695742685114965e-05,1.5973026165738702e-05,-9.326470717496704e-06,6.558887980645522e-05
-2.139640309906099e-05,1.2343406297077308e-06,-6.333611054287758e-06,6.392256182152778e-05
-2.599590879981406e-05,2.754325032583438e-05,-2.4099156235024566e-06,6.372162897605449e-05
-2.530681376811117e-05,5.788116322946735e-05,3.4023566968244268e-06,6.617900362471119e-05
-2.2932155843591318e-05,6.26378896413371e-05,9.560271791997366e-06,6.724600825691596e-05
-2.1962068785796873e-05,4.7417368477908894e-05,4.83056646771729e-06,6.547194061568007e-05
-2.044868415396195e-05,2.9804934456478804e-05,-6.949444014026085e-06,6.170923734316602e-05
-1.3854035387339536e-05,2.4949371436377987e-05,-1.240033088834025e-05,5.717708700103685e-05
-9.401450370205566e-06,2.6976780645782128e-05,-1.243932820216287e-05,5.3592189942719415e-05
-1.0860644579224754e-05,2.8142407245468348e-05,-1.639196852920577e-05,5.224837877904065e-05
-1.3694374501938e-05,2.762652911769692e-05,-2.0285862774471752e-05,5.2464376494754106e-05
-1.7136017049779184e-05,2.167381353501696e-05,-1.737670390866697e-05,5.57637213205453e-05
-1.8795546566252597e-05,6.60295791021781e-06,-1.484630411141552e-05,5.767116817878559e-05
-2.095847412419971e-05,-4.9154973567056e-06,-1.6245554434135556e-05,5.448292722576298e-05
-2.494046202627942e-05,-5.500939096236834e-06,-1.7905455024447292e-05,5.00927671964746e-05
-2.664790372364223e-05,6.524752649283982e-08,-1.846589111664798e-05,4.6571021812269464e-05
-2.6416963009978645e-05,-2.2134520349936793e-07,-1.792206421669107e-05,4.582453038892709e-05
-2.8409596779965796e-05,-6.620623935305048e-06,-1.5194661500572693e-05,4.984645784134045e-05
-3.1254876375896856e-05,-1.1833549251605291e-05,-1.4117313185124658e-05,5.449260788736865e-05
-3.433580423006788e-05,-1.7965952793019824e-05,-1.603372220415622e-05,5.6349363148910925e-05
-3.6557423300109804e-05,-2.566498915257398e-05,-1.645658448978793e-05,5.855435301782563e-05
-3.539511453709565e-05,-3.3643096685409546e-05,-1.2165885891590733e-05,5.945813245489262e-05
-3.305096834083088e-05,-3.2295738492393866e-05,-8.722744496481027e-06,5.618671275442466e-05
-3.2396761525887996e-05,-1.5928089851513505e-05,-8.285299372801092e-06,5.339174094842747e-05
-3.175298115820624e-05,1.1989395716227591e-05,-5.480928393808426e-06,5.241013423074037e-05
-2.9998620448168367e-05,4.397582961246371e-05,-1.241099312210281e-06,4.9251764721702784e-05
-2.837265856214799e-05,8.088118192972615e-05,-1.440074129277491e-06,4.5861459511797875e-05
-2.7808971935883164e-05,0.00011743543291231617,-8.796945621725172e-06,4.463949881028384e-05
-2.9102899134159088e-05,0.0001484379608882591,-1.8984617781825364e-05,4.359368176665157e-05
-3.084991476498544e-05,0.00015899752906989306,-2.4887594918254763e-05,4.291299046599306e-05
-3.337451926199719e-05,0.0001371205144096166,-2.4552640752517618e-05,4.4661595893558115e-05
-3.798821853706613e-05,9.552988922223449e-05,-2.337964906473644e-05,4.591765537043102e-05
-4.236409949953668e-05,6.232084706425667e-05,-2.5780003852560185e-05,4.523606912698597e-05
-4.192839696770534e-05,5.8497971622273326e-05,-2.9030672521912493e-05,4.2893836507573724e-05
-3.8212489016586915e-05,9.129291720455512e-05,-2.44698348979e-05,4.2126808693865314e-05
-3.9354887121589854e-05,0.00012194355804240331,-1.4109757103142329e-05,4.492891821428202e-05
-4.223686482873745e-05,0.00011063084821216762,-1.0473556358192582e-05,4.9796457460615784e-05
-4.116163472644985e-05,6.176128226798028e-05,-1.3871654118702281e-05,5.360407885746099e-05
-3.872056913678534e-05,9.273591786040924e-06,-2.0427372874110006e-05,5.259075260255486e-05
-3.491013922030106e-05,-1.0528894563321956e-05,-2.1373243725975044e-05,5.0683007430052385e-05
-2.9542314223363064e-05,3.310256317945459e-07,-1.0422465493320487e-05,4.927005647914484e-05
-2.531899735913612e-05,6.780600415368099e-06,1.082376911654137e-06,4.68402577098459e-05
-2.1349087546695955e-05,-1.555763083160855e-05,7.707531040068716e-06,4.596102371579036e-05
-1.3489765478880145e-05,-6.0361791838658974e-05,1.1978706424997654e-05,4.8312398575944826e-05
-6.391327588062268e-06,-9.14438278414309e-05,1.1089207873737905e-05,5.429151133284904e-05
-4.658755187847419e-06,-7.98198307165876e-05,5.886222425033338e-06,6.003983071423136e-05
-8.317942047142424e-06,-4.37568269262556e-05,3.0347584925038973e-06,5.9698850236600265e-05
-1.3893925824959297e-05,-1.0205024409515318e-05,3.30571356244036e-06,5.6614568165969104e-05
-1.8659235138329677e-05,1.5401315977214836e-05,2.871869583032094e-06,5.662293187924661e-05
-2.0480954844970256e-05,3.819086850853637e-05,-4.667266182423191e-07,5.91662828810513e-05
-1.9641867766040377e-05,5.9589034208329394e-05,-6.007297088217456e-06,6.270198355196044e-05
-1.8026936231763102e-05,7.764924521325156e-05,-1.1346626706654206e-05,6.31833027000539e-05
-1.74741890077712e-05,8.985449676401913e-05,-1.4327911230793688e-05,6.111689435783774e-05
-1.844657708716113e-05,9.246858826372772e-05,-1.38459117806633e-05,6.145048973849043e-05
-1.985330345632974e-05,9.185876115225255e-05,-1.1997180081380066e-05,6.520931492559612e-05
-2.008646151807625e-05,9.045326441992074e-05,-1.2603289178514387e-05,7.112372986739501e-05
-2.0295032300055027e-05,7.259003905346617e-05,-1.3913951988797635e-05,7.439621549565345e-05
-2.254325954709202e-05,4.1631661588326097e-05,-1.2784518730768468e-05,7.295629620784894e-05
-2.3374894226435572e-05,1.8975657440023497e-05,-9.541971849102993e-06,6.846153701189905e-05
-2.5471716071479023e-05,1.2121071449655574e-05,-5.019172931497451e-06,6.351624324452132e-05
-2.460909672663547e-05,7.375569111900404e-06,-5.984418294247007e-08,6.150791887193918e-05
-2.2364945834851824e-05,4.141606041230261e-06,2.1086229935463052e-06,6.0515474615385756e-05
-2.314699668204412e-05,1.1738152352336328e-05,2.4883872811187757e-06,6.117126031313092e-05
-2.3689774025115184e-05,1.8974280465045013e-05,1.4965100945119048e-06,6.056061465642415e-05
-2.5178722353302874e-05,1.3556519661506172e-05,9.749386435942142e-07,5.876493742107414e-05
-2.6839876227313653e-05,1.0087477676279377e-05,3.3224348499061307e-06,6.083768676035106e-05
-2.4899338313844055e-05,1.6484913430758752e-05,2.734986310315435e-06,6.247872806852683e-05
-2.3330569092649966e-05,1.330790291831363e-05,-1.7590133438716293e-06,5.9654681535903364e-05
-2.7961259547737427e-05,-7.081157946231542e-06,-5.479188985191286e-06,5.266984226182103e-05
-3.363599898875691e-05,-1.9981236619059928e-05,-5.726940798922442e-06,4.903248554910533e-05
-3.737396764336154e-05,-5.16654426974128e-06,-5.009219421481248e-06,4.953477400704287e-05
-4.046454341732897e-05,4.754529527417617e-06,-2.286916242155712e-06,5.0889542762888595e-05
-4.09721105825156e-05,-3.95444612877327e-06,5.46983187632577e-07,5.295673690852709e-05
-3.8146565202623606e-05,2.7105738809041213e-07,1.515137114438403e-06,5.418255750555545e-05
-3.463560278760269e-05,7.141775313357357e-06,-2.791174154026521e-07,5.500078259501606e-05
-3.2713902328396216e-05,-8.229098057199735e-06,-4.2895580918411724e-06,5.5007847549859434e-05
-3.325750003568828e-05,-2.9971508411108516e-05,-7.981229828146752e-06,5.435310595203191e-05
-3.3906660974025726e-05,-3.4085915103787556e-05,-9.870888789009769e-06,5.442311885417439e-05
-3.389876292203553e-05,-1.2755204807035625e-05,-1.0033388207375538e-05,5.3700106946052983e-05
-3.3629527024459094e-05,2.7371828764444217e-05,-1.0590472811600193e-05,5.24113311257679e-05
-3.200433275196701e-05,5.512547431862913e-05,-1.2208750376885291e-05,5.1674021960934624e-05
-2.8001875762129202e-05,3.954878411605023e-05,-1.4961922715883702e-05,5.2075523854000494e-05
-2.17212855204707e-05,-7.934248060337268e-06,-1.8801887563313358e-05,5.493845310411416e-05
-1.470446750317933e-05,-5.150418292032555e-05,-2.281975503137801e-05,5.605140177067369e-05
-8.312213140015956e-06,-7.112093589967117e-05,-2.1767955331597477e-05,5.100736234453507e-05
-5.6382968978141434e-06,-6.0244132328080013e-05,-1.7249338270630687e-05,4.8511094064451754e-05
-1.037216770782834e-05,-2.7973497708444484e-05,-1.504067040514201e-05,5.3070827561896294e-05
-1.6047093595261686e-05,2.48360333898745e-06,-1.4851707419438753e-05,5.80093364987988e-05
-1.7896893041324802e-05,1.802638689696323e-05,-1.4988825569162145e-05,5.903609053348191e-05
-1.8319045921089128e-05,2.4922428565332666e-05,-1.852333480201196e-05,5.076721572550014e-05
-1.797216827981174e-05,3.9121256122598425e-05,-2.4026325263548642e-05,4.316506237955764e-05
-2.1058664060547017e-05,7.382001786027104e-05,-2.7922056688112207e-05,4.471775173442438e-05
-2.4269585992442444e-05,0.000105494269519113,-2.448998020554427e-05,4.455496673472226e-05
-2.4875720555428416e-05,9.648608101997524e-05,-1.734456054691691e-05,4.134647679165937e-05
-2.3257283828570507e-05,6.395488162524998e-05,-1.3059068805887364e-05,4.106163396500051e-05
-2.1502739400602877e-05,4.818032539333217e-05,-9.617894647817593e-06,4.4319112930679694e-05
-2.1604360881610774e-05,5.863925980520435e-05,-8.744013030081987e-06,4.821502443519421e-05
-2.2566260668099858e-05,7.617686787853017e-05,-8.912262273952365e-06,5.047656668466516e-05
-2.413431320746895e-05,9.308029257226735e-05,-7.086623099894496e-06,5.071656050859019e-05
-2.5500918127363548e-05,9.954685810953379e-05,-4.259787601768039e-06,4.873835132457316e-05
-2.734208646870684e-05,8.679912571096793e-05,-4.194870143692242e-06,4.7065575927263126e-05
-2.7909753043786623e-05,6.022808520356193e-05,-4.8664878704585135e-06,4.883145084022544e-05
-2.639923150127288e-05,2.803127426886931e-05,-4.574084414343815e-06,5.463762136059813e-05
-2.504601070540957e-05,9.353881864626601e-07,-2.833556436598883e-06,6.025527909514494e-05
-2.520732414268423e-05,-1.4859266229905188e-05,8.533534128218889e-07,6.406947795767337e-05
-2.6116586013813503e-05,-2.4226019377238117e-05,2.346818064324907e-06,6.482969911303371e-05
-2.6951731342705898e-05,-3.477064456092194e-05,-1.4852920457997243e-06,6.180140189826488e-05
-2.7086081900051795e-05,-3.221774386474863e-05,-7.679291229578666e-06,5.6492041039746255e-05
-2.74922185781179e-05,-8.853090548655018e-06,-1.1518842256919015e-05,5.231936302152462e-05
-2.9175584131735377e-05,1.9600063751568086e-05,-1.2513657566159964e-05,5.143441376276314e-05
-2.8651880711549893e-05,3.72645263269078e-05,-1.3178800145396963e-05,5.430294913821854e-05
-2.612954267533496e-05,3.767416637856513e-05,-1.562556644785218e-05,5.8022229495691136e-05
-2.7480618882691488e-05,2.658054290805012e-05,-1.6386986317229457e-05,5.856670395587571e-05
-2.9621636713272892e-05,1.884126140794251e-05,-1.460296698496677e-05,6.217779446160421e-05
-3.103090784861706e-05,1.2213159607199486e-05,-1.4912199731043074e-05,6.296910578384995e-05
-3.281775570940226e-05,-1.0391863725089934e-06,-1.4412248674489092e-05,5.539339690585621e-05
-3.4348744520684704e-05,-4.56803354609292e-06,-1.1621727935562376e-05,5.413825056166388e-05
-3.630500577855855e-05,1.224250445375219e-05,-7.080050181684783e-06,6.05306813667994e-05
-3.387788819964044e-05,4.126577914576046e-05,-4.794837423105491e-06,6.578976172022521e-05
-3.0765349947614595e-05,6.519204180222005e-05,-5.342224994819844e-06,6.780543480999768e-05
-3.2575153454672545e-05,6.025585389579646e-05,-3.149287067572004e-06,6.907531496835873e-05
-3.375349479028955e-05,3.144454240100458e-05,-3.603733148338506e-06,7.053185981931165e-05
-3.239119905629195e-05,9.586252417648211e-06,-6.232680334505858e-06,6.777555972803384e-05
-2.984208367706742e-05,1.1875885320478119e-05,-7.2838956839405e-06,6.739659875165671e-05
-2.6722054826677777e-05,2.278930514876265e-05,-5.624911864288151e-06,7.289138011401519e-05
-2.5096464014495723e-05,2.9411352443275973e-05,-4.134837581659667e-06,7.633916538907215e-05
-2.6257546778651886e-05,3.299559830338694e-05,-4.7233052100637e-06,7.269755587913096e-05
-2.9731001632171683e-05,3.422241206862964e-05,-5.0734624892356806e-06,6.947229849174619e-05
-3.347840902279131e-05,3.3059503039112315e-05,-4.37074277215288e-06,7.159717642934993e-05
-3.31753799400758e-05,3.142991045024246e-05,-6.969115474930732e-06,7.192041812231764e-05
-3.076878056162968e-05,3.363642827025615e-05,-1.1184192771906964e-05,6.74323455314152e-05
-3.01042618957581e-05,3.931168612325564e-05,-1.1395856745366473e-05,6.639529601670802e-05
-2.9989170798216946e-05,4.195920337224379e-05,-1.0462965292390436e-05,7.06341743352823e-05
-2.8501079214038327e-05,3.821390782832168e-05,-1.1341121535224374e-05,7.267289038281888e-05
-2.7608131858869456e-05,2.997079718625173e-05,-1.3309382666193414e-05,6.927155482117087e-05
-2.892372867790982e-05,1.8534690752858296e-05,-1.5740532035124488e-05,6.352319906000048e-05
-2.9629152777488343e-05,1.1923933925572783e-05,-1.655561209190637e-05,6.254125764826313e-05
-2.956915159302298e-05,1.1911494766536634e-05,-1.4860319424769841e-05,6.773151835659519e-05
-2.834524457284715e-05,1.3201079127611592e-05,-1.5046471162349917e-05,7.19792369636707e-05
-2.7744072212954052e-05,9.879619938146789e-06,-1.5122848708415404e-05,7.070583524182439e-05
-2.793514977383893e-05,6.630258212680928e-06,-1.4536819435306825e-05,6.783302524127066e-05
-2.7497890187078156e-05,9.89956060948316e-06,-1.1536863894434646e-05,6.498319999082014e-05
-2.9841125069651753e-05,1.3139248949300963e-05,-9.2554710136028e-06,6.520110764540732e-05
-3.191777796018869e-05,9.1804204203072e-06,-1.2558012713270728e-05,6.623221270274371e-05
-2.967654108942952e-05,6.302864221652271e-06,-1.660498310229741e-05,6.52301314403303e-05
-2.4923356249928474e-05,1.041355608322192e-05,-1.5217784493870568e-05,6.561654299730435e-05
-2.0320256226113997e-05,2.076221971947234e-05,-1.1625515071500558e-05,6.661353108938783e-05
-2.1029449271736667e-05,2.9990600523888133e-05,-1.2972179320058785e-05,6.470886728493497e-05
-2.4290740839205682e-05,2.7009045879822224e-05,-1.48400349644362e-05,6.0206239140825346e-05
-2.327813308511395e-05,1.618039095774293e-05,-1.3118968126946129e-05,5.60632543056272e-05
-1.9757924746954814e-05,8.53815163281979e-06,-1.0574268344498705e-05,5.482045526150614e-05
-1.730226904328447e-05,1.2708600479527377e-05,-1.0093938726640772e-05,5.553219671128318e-05
-1.657325447013136e-05,2.317691541975364e-05,-1.2982971384190023e-05,5.585456528933719e-05
-1.700917891866993e-05,3.02983771689469e-05,-1.5687824998167343e-05,5.7469394960207865e-05
-1.9634684576885775e-05,2.937113276857417e-05,-1.3678723917109892e-05,6.114318239269778e-05
-2.4029568521655165e-05,2.5100416678469628e-05,-1.1091081432823557e-05,6.319928070297465e-05
-2.6624102247296833e-05,2.5130004360107705e-05,-1.2311428690736648e-05,5.968016557744704e-05
-2.8508342438726686e-05,3.008018757100217e-05,-1.3421939911495429e-05,5.5311025789706036e-05
-2.821298585331533e-05,3.5439603379927576e-05,-1.1446551980043296e-05,5.5159216572064906e-05
-2.4094999389490113e-05,3.1881318136584014e-05,-9.758405212778598e-06,5.7212269894080237e-05
-1.96652708837064e-05,1.963554313988425e-05,-1.0517766895645764e-05,5.943782889517024e-05
-1.8551310859038495e-05,5.535298441827763e-06,-1.0854324500542134e-05,6.276791100390255e-05
-1.7873251636046916e-05,-5.653317657561274e-06,-1.0333553291275166e-05,6.488405779236928e-05
-1.6468728063046e-05,-1.3030992704443634e-05,-1.0521767762838863e-05,6.212135485839099e-05
-1.7129590560216457e-05,-2.396162017248571e-05,-8.64940830069827e-06,5.709057950298302e-05
-2.1379903046181425e-05,-4.149364394834265e-05,-7.0345313361031e-06,5.7361190556548536e-05
-2.8684107746812515e-05,-5.49854121345561e-05,-1.2063396752637345e-05,6.385945016518235e-05
-3.475596531643532e-05,-5.108336335979402e-05,-2.0473336917348206e-05,6.667806155746803e-05
-3.785705121117644e-05,-2.3536265871371143e-05,-2.4531826056772843e-05,6.317111547105014e-05
-3.684834155137651e-05,3.1517531169811264e-05,-2.4201390260714106e-05,5.439784217742272e-05
-3.6376040952745825e-05,8.996786345960572e-05,-2.1650770577252842e-05,5.2510902605718e-05
-3.995892620878294e-05,0.00012172351853223518,-1.3129429135005921e-05,5.5694643378956243e-05
-4.318624996813014e-05,0.0001237511314684525,-3.522103497743956e-06,5.3214618674246594e-05
-4.3934735003858805e-05,0.00011286477820249274,4.587954663293203e-06,5.58219981030561e-05
-4.115844058105722e-05,0.00011257583537371829,8.872218131728005e-06,5.955606320640072e-05
-3.3629989047767594e-05,0.00010746261978056282,5.226593657425838e-06,6.024400863680057e-05
-2.6088697268278338e-05,9.157419117400423e-05,3.995492079411633e-06,5.83499604545068e-05
-2.191448220401071e-05,7.21415999578312e-05,1.1377748705854174e-05,5.7276254665339366e-05
-1.8472301235306077e-05,5.182479435461573e-05,2.2273419745033607e-05,5.810222137370147e-05
-1.5057952623465098e-05,4.5486940507544205e-05,2.368480090808589e-05,5.760429485235363e-05
-1.377624266751809e-05,6.197371112648398e-05,1.586415783094708e-05,5.5248856369871646e-05
-1.4071559235162567e-05,9.161329944618046e-05,8.222554242820479e-06,5.374869215302169e-05
-1.4744818145118188e-05,0.00011069228639826179,1.2708051144727506e-06,5.716423038393259e-05
-1.5922343663987704e-05,8.224203338613734e-05,-6.861783731437754e-06,6.043573739589192e-05
-1.926870936586056e-05,9.162681635643821e-07,-1.0879422006837558e-05,6.0744790971511975e-05
-2.328447953914292e-05,-5.592887828242965e-05,-6.4994560489139985e-06,6.115364521974698e-05
-2.370455149502959e-05,-3.0298209821921773e-05,-1.8311543499294203e-06,6.27721892669797e-05
-2.1232473955024034e-05,3.1001694878796116e-05,-3.4960505672643194e-06,6.354312063194811e-05
-1.9614022676250897e-05,6.812866195105016e-05,-6.104665771999862e-06,6.514064443763345e-05
-2.018260238401126e-05,9.049307845998555e-05,-2.132029067070107e-06,6.392002978827804e-05
-2.204533120675478e-05,0.00012316856009420007,4.258542503521312e-06,5.914943903917447e-05
-2.3810629500076175e-05,0.00016630662139505148,3.2274213026539655e-06,5.379988579079509e-05
-2.5674502467154525e-05,0.00016964547103270888,-5.630469331663335e-06,5.012111068936065e-05
-2.5871531761367805e-05,7.540240767411888e-05,-1.417993007635232e-05,4.768546932609752e-05
-2.4659480914124288e-05,-5.6782762840157375e-05,-1.69005634234054e-05,4.28983912570402e-05
-2.624648914206773e-05,-0.00010285103053320199,-1.6377898646169342e-05,3.960138565162197e-05
-2.732626126089599e-05,-8.688058005645871e-05,-1.8228460248792544e-05,4.392640767036937e-05
-2.4867871616152115e-05,-8.851323946146294e-05,-1.9772878658841364e-05,4.6643672249047086e-05
-2.5358340280945413e-05,-6.892618694109842e-05,-2.084613879560493e-05,4.387303124531172e-05
-2.8208080038893968e-05,-2.8577032935572788e-05,-2.181950731028337e-05,4.5931636122986674e-05
-3.0474284358206205e-05,-7.99876306700753e-06,-2.1746815036749467e-05,4.988902946934104e-05
-3.1454233976546675e-05,2.038010222804587e-07,-1.9776702174567617e-05,5.311457789503038e-05
-2.834745464497246e-05,-4.827165867027361e-06,-1.8303946490050294e-05,5.534150841413066e-05
-2.4114926418405958e-05,-1.6634732673992403e-05,-1.994358353840653e-05,5.589349166257307e-05
-2.354341631871648e-05,-3.1264033168554306e-05,-1.9610808521974832e-05,5.591639637714252e-05
-2.835719169524964e-05,-4.9448932259110734e-05,-1.8162327251047827e-05,5.3940704674459994e-05
-3.418255437281914e-05,-6.50401707389392e-05,-1.7419279174646363e-05,4.8677989980205894e-05
-3.600208947318606e-05,-5.746046736021526e-05,-1.714011341391597e-05,4.280459324945696e-05
-3.3062053262256086e-05,-2.4820532416924834e-05,-1.6284267985611223e-05,4.241732312948443e-05
-3.0081129807513207e-05,2.2152513338369317e-05,-1.5486999473068863e-05,4.5929948100820184e-05
-2.9072733013890684e-05,6.827564357081428e-05,-1.4558964721800294e-05,4.578644075081684e-05
-3.1129213311942294e-05,9.279517689719796e-05,-1.4283439668361098e-05,4.1197363316314295e-05
-3.3182892366312444e-05,8.841820090310648e-05,-1.5538000297965482e-05,4.0026570786722004e-05
-3.3477426768513396e-05,6.469125946750864e-05,-1.6001020412659273e-05,4.4179487304063514e-05
-3.405313691473566e-05,4.2819607187993824e-05,-1.481052822782658e-05,4.865532537223771e-05
-3.507499786792323e-05,2.2183579858392477e-05,-1.341808820143342e-05,5.0984312110813335e-05
-3.6333036405267194e-05,-1.439542870684818e-06,-1.177348804048961e-05,5.213040276430547e-05
-3.605201709433459e-05,-2.3788905309629627e-05,-9.230063369614072e-06,5.24465212947689e-05
-3.565920633263886e-05,-3.4304273867746815e-05,-9.563788808009122e-06,5.147575575392693e-05
-3.4912325645564124e-05,-2.8970509447390214e-05,-1.3077178664389066e-05,5.1693536079255864e-05
-3.335544533911161e-05,-1.6085581592051312e-05,-1.4746257875231095e-05,5.4952295613475144e-05
-3.1193419999908656e-05,-1.1029433153453283e-05,-1.1179288776475005e-05,5.992447768221609e-05
-2.7200843760510907e-05,-7.678578185732476e-06,-6.005301656841766e-06,6.334645877359435e-05
-2.2817650460638106e-05,6.1105879467504565e-06,-6.5973063101409934e-06,6.267573189688846e-05
-1.8631120838108473e-05,2.0153993318672292e-05,-8.540961061953567e-06,6.334250065265223e-05
-1.5457242625416256e-05,3.0544164474122226e-05,-6.624276011280017e-06,6.67661297484301e-05
-1.3252613825898152e-05,4.108681241632439e-05,-7.334858764806995e-06,6.950880924705416e-05
-1.1853356227220502e-05,4.4316922867437825e-05,-5.2127275012026075e-06,6.891127122798935e-05
-1.2516673450591043e-05,4.461971911950968e-05,-5.254647135188861e-07,6.639622006332502e-05
-1.2770423381880391e-05,4.3122261558892205e-05,-4.868569703830872e-06,6.537692388519645e-05
-1.2748906556225847e-05,3.636078326962888e-05,-1.3986797057441436e-05,6.353511707857251e-05
-1.4375926184584387e-05,3.333329004817642e-05,-1.5456853361683898e-05,6.377747195074335e-05
-1.6133151802932844e-05,3.742686385521665e-05,-1.2307899851293769e-05,6.603812653338537e-05
-1.819209683162626e-05,3.688885044539347e-05,-1.1357547919033095e-05,6.775149813620374e-05
-2.334237433387898e-05,2.900219988077879e-05,-9.609109838493168e-06,6.792337808292359e-05
-2.793937164824456e-05,2.062513704004232e-05,-8.121161044982728e-06,6.818510155426338e-05
-2.762996155070141e-05,2.0065119315404445e-05,-7.98147993918974e-06,6.693899194942787e-05
-2.546449650253635e-05,2.7020398192689754e-05,-7.998909495654516e-06,6.533802661579102e-05
-2.6714815248851664e-05,2.9498083677026443e-05,-9.049487744050566e-06,6.58973804092966e-05
-2.7700925784301944e-05,2.0590667190845124e-05,-1.314516157435719e-05,6.554799620062113e-05
-2.607180613267701e-05,1.5667602610847098e-06,-1.543446705909446e-05,6.332517659757286e-05
-2.433877125440631e-05,-1.9507089746184647e-05,-1.3550292351283133e-05,6.54407122056e-05
-2.4587510779383592e-05,-3.4258155210409313e-05,-1.2038036402373109e-05,7.026775710983202e-05
-2.5662935513537377e-05,-3.1460815080208704e-05,-1.2878855159215163e-05,6.895781552884728e-05
-2.751046667981427e-05,1.8483738131180871e-06,-1.3333058632269967e-05,6.433819362428039e-05
-2.9391803764156066e-05,5.384013638831675e-05,-1.1170263860549312e-05,6.362558633554727e-05
-2.6855523174162954e-05,8.343609079020098e-05,-7.940359864733182e-06,6.609183037653565e-05
-2.2114811145002022e-05,7.902328070485964e-05,-1.6223483498833957e-06,6.58774733892642e-05
-1.9048677131650038e-05,6.439601565944031e-05,5.656213033944368e-06,6.313607445918024e-05
-2.015134487010073e-05,6.20079372311011e-05,9.500894520897418e-06,5.8723107940750197e-05
-2.6491019525565207e-05,6.941241736058146e-05,1.2511569366324693e-05,5.2690629672724754e-05
-2.889850475185085e-05,6.581780326087028e-05,1.380135290673934e-05,5.2582399803213775e-05
-2.7643882276606746e-05,3.525867941789329e-05,6.2450062614516355e-06,5.877806688658893e-05
-2.8860607926617377e-05,-4.257848559063859e-06,-6.232146006368566e-06,5.953032450634055e-05
-3.048486541956663e-05,-3.184178422088735e-05,-1.6168954971362837e-05,5.637723734253086e-05
-3.172436845488846e-05,-3.4793538361554965e-05,-2.102463986375369e-05,5.679510286427103e-05
-2.6895029805018567e-05,-7.6415008152253e-06,-1.7984260921366513e-05,5.988056364003569e-05
-2.0103387214476243e-05,2.9652526791323908e-05,-1.3691733329324052e-05,5.5848515330580994e-05
-1.8462795196683146e-05,6.233573367353529e-05,-1.5017692930996418e-05,4.943798194290139e-05
-2.197732828790322e-05,8.918411185732111e-05,-2.253829370602034e-05,4.94460946356412e-05
-2.441061587887816e-05,0.00011092410568380728,-3.084833952016197e-05,5.420064553618431e-05
-2.329396374989301e-05,0.00011728454410331324,-3.307915903860703e-05,5.6630717153893784e-05
-2.1166890292079188e-05,9.672247688286006e-05,-2.6423933377373032e-05,5.4884694691281766e-05
-2.1811823899042793e-05,6.0744026995962486e-05,-1.4204711078491528e-05,5.38902822881937e-05
-2.4327282517333515e-05,3.193586599081755e-05,-3.1695872166892514e-06,5.430509554571472e-05
-2.5343850211356767e-05,1.6387004507123493e-05,2.5219077315341565e-07,5.510145638254471e-05
-2.5583385649952106e-05,8.883263944881037e-06,-5.065378445578972e-06,5.7809102145256475e-05
-2.6729365345090628e-05,6.548282726726029e-06,-1.1051644833059981e-05,6.21022263658233e-05
-2.857834260794334e-05,4.747737420984777e-06,-9.442674127058126e-06,6.286961433943361e-05
-2.980199860758148e-05,5.240585778665263e-06,-1.134096009991481e-06,6.0471607866929844e-05
-3.1467232474824414e-05,1.4507634659821633e-05,4.739045380119933e-06,5.9353526012273505e-05
-3.318038579891436e-05,3.320792893646285e-05,1.321578224633413e-06,6.274857150856405e-05
-3.282289253547788e-05,5.662694093189202e-05,-6.741360721207457e-06,6.738188676536083e-05
-3.242311140638776e-05,5.5566724768141285e-05,-6.948190730327042e-06,6.702306563965976e-05
-3.357875903020613e-05,1.6940364730544388e-05,1.056456198966771e-06,6.136882439022884e-05
-3.538239252520725e-05,-1.290104501094902e-05,1.1060617907787673e-05,6.02105756115634e-05
-3.8246649637585506e-05,1.7210477381013334e-06,1.670519122853875e-05,6.466510967584327e-05
-3.427539922995493e-05,2.8186734198243357e-05,1.541899109724909e-05,6.867493357276544e-05
-2.5500854462734424e-05,1.1840413208119571e-05,7.928155355330091e-06,7.060183270368725e-05
-2.1338299120543525e-05,-1.694050479272846e-05,-4.376383458293276e-06,7.09509986336343e-05
-2.327055153727997e-05,9.746790965436958e-06,-1.2732383765978739e-05,6.767356535419822e-05
-2.76924893114483e-05,7.489426934625953e-05,-1.2848670849052723e-05,6.35707110632211e-05
-3.169595220242627e-05,0.00012957051512785256,-1.412550136592472e-05,6.176048918860033e-05
-3.106440999545157e-05,0.0001547968713566661,-2.1920552171650343e-05,6.005767500028014e-05
-2.5748373445821926e-05,0.0001461557694710791,-3.0916646210243925e-05,5.8899775467580184e-05
-1.9889526811311953e-05,9.709957521408796e-05,-3.59280857082922e-05,5.9593159676296636e-05
-1.768352922226768e-05,4.276700201444328e-05,-3.4016065910691395e-05,6.107940134825185e-05
-1.8431415810482576e-05,2.6868123313761316e-05,-2.5246705263270997e-05,6.269604637054726e-05
-1.805592364689801e-05,4.158429510425776e-05,-1.7592854419490322e-05,6.432368536479771e-05
-1.8611619452713057e-05,5.55184087716043e-05,-1.93716878129635e-05,6.240933726076037e-05
-2.007568400586024e-05,4.681516657001339e-05,-2.386777850915678e-05,5.5536303989356384e-05
-2.008817136811558e-05,2.7269712518318556e-05,-2.2791891751694493e-05,5.019063246436417e-05
-1.9971144865849055e-05,1.510964739281917e-05,-1.859145959315356e-05,5.2136114391032606e-05
-2.020535248448141e-05,8.578566848882474e-06,-1.612934283912182e-05,5.830676309415139e-05
-1.963748763955664e-05,-7.995951705197513e-07,-1.5772448023199104e-05,6.206998659763485e-05
-2.121369652741123e-05,-1.1189657016075216e-05,-1.6870006220415235e-05,6.28349807811901e-05
-2.369075082242489e-05,-2.386320920777507e-05,-1.8170760085922666e-05,6.312894402071834e-05
-2.4199454855988733e-05,-4.2975756514351815e-05,-1.7433700122637674e-05,6.264494732022285e-05
-2.2950438506086357e-05,-5.8330188039690256e-05,-1.385377072438132e-05,6.171670247567818e-05
-2.1752442989964038e-05,-4.904868546873331e-05,-1.224005791300442e-05,6.373380165314302e-05
-2.2564976461580954e-05,-1.5348394299508072e-05,-1.2105282621632796e-05,6.781784031772986e-05
-2.2092261133366264e-05,2.1893289158469997e-05,-8.702503691893071e-06,7.035960152279586e-05
-1.944128416653257e-05,4.5308384869713336e-05,-5.764673915109597e-06,6.905374902999029e-05
-2.105609564750921e-05,4.532344246399589e-05,-4.724337941297563e-06,6.519204180222005e-05
-2.3858121494413354e-05,1.7902559193316847e-05,-7.2603306762175635e-06,6.362586282193661e-05
-2.2435142454924062e-05,-1.2012212209810968e-05,-1.0602118891256396e-05,6.579145701834932e-05
-2.0117500753258355e-05,-2.5209001250914298e-05,-1.0751728950708639e-05,6.825043237768114e-05
-2.0481800675042905e-05,-3.682904571178369e-05,-1.2264510587556288e-05,6.7950262746308e-05
-2.3916234567877837e-05,-5.0707974878605455e-05,-1.4664547052234411e-05,6.658441998297349e-05
-2.6908905056188814e-05,-5.4042026022216305e-05,-1.4200789337337483e-05,6.385590677382424e-05
-2.733389919740148e-05,-3.7838195567019284e-05,-1.2746437278110534e-05,6.17234836681746e-05
-2.7571933969738893e-05,-9.590524314262439e-06,-1.2014216736133676e-05,5.737024548579939e-05
-2.854101694538258e-05,3.087152435909957e-05,-1.0284587915521115e-05,5.398667781264521e-05
-2.9429975256789476e-05,7.661331619601697e-05,-7.424315754178679e-06,5.5346488807117566e-05
-3.064370685024187e-05,0.00011731092672562227,-5.982355560263386e-06,5.8800553233595565e-05
-3.0197104933904484e-05,0.00011725115473382175,-8.643229193694424e-06,5.9076428442494944e-05
-2.9496708521037363e-05,3.709066368173808e-05,-1.3820694221067242e-05,5.690297984983772e-05
-3.243511309847236e-05,-6.413511437131092e-05,-1.707819501461927e-05,5.712490019504912e-05
-3.649407881312072e-05,-9.082590986508876e-05,-1.4556207133864518e-05,5.8658199122874066e-05
-3.7948248063912615e-05,-5.5872180382721126e-05,-7.961960363900289e-06,5.807790512335487e-05
-3.5581095289671794e-05,-3.5842833312926814e-05,-2.604456994959037e-06,5.5280794185819104e-05
-2.9345668735913932e-05,-4.378659286885522e-05,-8.091169547697064e-07,5.16299951414112e-05
-2.421232966298703e-05,-3.4884218621300533e-05,-1.3856575833415263e-06,4.733333844342269e-05
-2.4266817490570247e-05,-8.493544214616122e-07,-7.044698691061058e-07,4.3911968532484025e-05
-2.85092210106086e-05,2.514033258194104e-05,6.6429976186555e-07,4.247558899805881e-05
-3.3364034607075155e-05,2.9558197638834827e-05,-8.558211561648932e-08,4.239322879584506e-05
-3.493291660561226e-05,2.2792048184783198e-05,-3.927268153347541e-06,4.066480687470175e-05
-3.472409298410639e-05,1.904303462652024e-05,-9.141964255832136e-06,4.100974547327496e-05
-3.3695734600769356e-05,1.6420379324699752e-05,-1.172663633042248e-05,4.3331823690095916e-05
-3.313798879389651e-05,9.556605618854519e-06,-1.1962633834627923e-05,4.117732169106603e-05
-3.3315300242975354e-05,3.029849949598429e-06,-1.0321175068384036e-05,3.858944182866253e-05
-3.259227014495991e-05,1.5069182154547889e-05,-1.529006112832576e-06,4.35377296525985e-05
-2.8664921046583913e-05,4.2088493501069024e-05,7.309296051971614e-06,4.8507114115636796e-05
-2.3636201149201952e-05,6.98952135280706e-05,7.253769126691623e-06,4.898017868981697e-05
-2.3100667021935806e-05,9.153746941592544e-05,2.3215693545353133e-06,4.4371772673912346e-05
-2.420047894702293e-05,9.418583067599684e-05,-3.344705419294769e-06,4.1511571907904e-05
-2.7135733034810983e-05,9.367638995172456e-05,-6.324410151137272e-06,4.164443089393899e-05
-2.9766628358629532e-05,0.00010735787509474903,-8.051817530940752e-06,4.1986520955106243e-05
-2.865561873477418e-05,0.00010614543862175196,-1.0100445251737256e-05,4.2210493120364845e-05
-2.65858670900343e-05,6.96020942996256e-05,-1.1606466614466626e-05,3.98099327867385e-05
-2.5621116947149858e-05,1.8375016225036234e-05,-1.1305657608318143e-05,3.8960941310506314e-05
-2.7162090191268362e-05,-1.5936137060634792e-05,-8.380126928386744e-06,4.383358100312762e-05
-2.807409873639699e-05,-2.926265551650431e-05,-3.7150809930608375e-06,5.277858872432262e-05
-2.5880313842208125e-05,-3.409420241951011e-05,-2.496088427506038e-06,5.866278661414981e-05
-2.4345017664018087e-05,-3.0890329071553424e-05,-3.21271113534749e-06,5.96765530644916e-05
-2.614437835291028e-05,-1.0662819477147423e-05,-3.144165702906321e-06,5.8364064898341894e-05
-2.9122043997631408e-05,2.4262439183075912e-05,-4.908566097583389e-06,5.835260162712075e-05
-2.893081727961544e-05,5.512788993655704e-05,-7.837148586986586e-06,6.092868352425285e-05
-2.494297041266691e-05,7.095375622157007e-05,-9.76732189883478e-06,6.405346357496455e-05
-2.0716965082101524e-05,6.47877823212184e-05,-1.245202020072611e-05,6.424501043511555e-05
-1.9036111552850343e-05,3.272144385846332e-05,-1.6803671314846724e-05,6.061137901269831e-05
-1.9207749573979527e-05,-4.205254754197085e-06,-1.801179132598918e-05,5.6439879699610174e-05
-2.089182089548558e-05,-1.1638441719696857e-05,-1.610135041119065e-05,5.45589136891067e-05
-2.332609255972784e-05,7.9309811553685e-06,-1.3955110262031667e-05,5.584488462773152e-05
-2.338135709578637e-05,2.2895290385349654e-05,-1.472788517276058e-05,5.7946101151173934e-05
-2.3907590730232187e-05,1.7694561393000185e-05,-1.78670870809583e-05,5.408875222201459e-05
-2.6214871468255296e-05,1.528349457657896e-05,-2.069751644739881e-05,4.453475776244886e-05
-2.4599763492005877e-05,2.8045989893143997e-05,-1.7476708308095112e-05,3.851663859677501e-05
-1.9210405298508704e-05,3.5368466342333704e-05,-8.448643711744808e-06,4.1828981920843944e-05
-1.7619735444895923e-05,2.24256200453965e-05,-3.779779490287183e-06,5.017132934881374e-05
-1.9036449884879403e-05,6.095818321227853e-07,-3.235388248867821e-06,5.761329521192238e-05
-2.3717291696812026e-05,-9.117308763961773e-06,-2.8901783934998093e-06,6.0625930927926674e-05
-2.794556348817423e-05,-4.395662017486757e-06,-4.107866516278591e-06,6.118830788182095e-05
-2.470437902957201e-05,1.7894059055834077e-05,-7.663673386559822e-06,6.033139652572572e-05
-2.1542491595027968e-05,4.595674909069203e-05,-1.2732031791529153e-05,5.893995694350451e-05
-2.143439996871166e-05,5.904181671212427e-05,-1.394426180922892e-05,5.877259172848426e-05
-2.4101376766338944e-05,5.581793448072858e-05,-9.850562491919845e-06,6.0977283283136785e-05
-2.9653921956196427e-05,3.991425546701066e-05,-7.75285116105806e-06,6.429170753108338e-05
-3.594286317820661e-05,2.255768959003035e-05,-1.3289584785525221e-05,6.674226460745558e-05
-3.8652680814266205e-05,2.162685814255383e-05,-1.7514466890133917e-05,6.579289765795693e-05
-3.696243584272452e-05,4.2794352339114994e-05,-1.5513312973780558e-05,6.260782538447529e-05
-3.304967322037555e-05,5.8664078096626326e-05,-1.1931297194678336e-05,6.190344720380381e-05
-2.7856034648721106e-05,4.720637298305519e-05,-9.279678124585189e-06,6.256392953218892e-05
-2.3203592718346044e-05,3.374724474269897e-05,-6.260223472054349e-06,6.315620703389868e-05
-2.1868945623282343e-05,5.0027570978272706e-05,-3.258730430388823e-06,6.399908306775615e-05
-2.5216495487256907e-05,7.932070002425462e-05,-3.6530082070385106e-06,6.359047984005883e-05
-2.85996102320496e-05,8.97692734724842e-05,-9.034364666149486e-06,6.209572893567383e-05
-2.9024544346611947e-05,7.890291453804821e-05,-1.7612061128602363e-05,6.296695937635377e-05
-2.8124875825596973e-05,6.729261804139242e-05,-2.1809453755849972e-05,6.582260539289564e-05
-2.8399468646966852e-05,7.11822067387402e-05,-1.9835037164739333e-05,6.83384423609823e-05
-3.0668656108900905e-05,7.589450251543894e-05,-1.9074313968303613e-05,6.906683120178059e-05
-3.2676576665835455e-05,4.256882311892696e-05,-2.317334474355448e-05,6.931331154191867e-05
-3.1087096431292593e-05,-2.8915210350533016e-05,-2.565306203905493e-05,6.975628639338538e-05
-2.791871338558849e-05,-7.284007006091997e-05,-2.3648992282687686e-05,7.050887506920844e-05
-2.532219332351815e-05,-5.320473064784892e-05,-1.7751714040059596e-05,7.017805910436437e-05
-2.3615986719960347e-05,-7.877771167841274e-06,-1.2567785233841278e-05,6.813234358560294e-05
-2.616691926959902e-05,1.1003870895365253e-05,-1.2013515515718609e-05,6.892623059684411e-05
-3.0502749723382294e-05,7.647530765098054e-06,-1.4555605957866646e-05,7.042867946438491e-05
-2.8878186640213244e-05,8.69604991748929e-06,-1.2284401236684062e-05,6.938731530681252e-05
-2.6443847673363052e-05,2.0456393031054176e-05,-4.636549874703633e-06,6.474235124187544e-05
-2.743491313594859e-05,3.407609256100841e-05,-9.527208817416977e-07,5.813695315737277e-05
-2.8359811039990745e-05,3.206348992534913e-05,-7.613688808305596e-07,5.696239531971514e-05
-2.83266490441747e-05,2.458837661833968e-05,-8.455170359411568e-07,5.7064204156631604e-05
-2.7565636628423817e-05,2.230150676041376e-05,1.1988857977485168e-06,5.729080658056773e-05
-2.5260780603275634e-05,2.253291677334346e-05,4.36075970355887e-06,5.585887629422359e-05
-2.3008478819974698e-05,2.5009514502016827e-05,3.3800979508669116e-06,5.519144542631693e-05
-2.1868645490030758e-05,4.005411028629169e-05,-4.046095000376226e-06,5.580217111855745e-05
-2.2037316739442758e-05,6.397614197339863e-05,-1.1513399840623606e-05,5.4549414926441386e-05
-2.5015720893861726e-05,7.381653267657384e-05,-1.31727147163474e-05,5.222462277743034e-05
-2.7666012101690285e-05,6.111693801358342e-05,-9.64389164437307e-06,5.1086673920508474e-05
-2.794114698190242e-05,4.0301143599208444e-05,-4.433458798303036e-06,5.169886571820825e-05
-2.6980242182617076e-05,3.174992889398709e-05,-2.5708261546242284e-06,5.0991468015126884e-05
-2.6638275812729262e-05,3.6431123589864e-05,-5.365923698263941e-06,5.008315929444507e-05
-2.4941598894656636e-05,3.819039193331264e-05,-8.359081220987719e-06,5.2004172175657004e-05
-2.320641760888975e-05,2.7395004508434795e-05,-7.760530934319831e-06,5.538756158784963e-05
-2.327776928723324e-05,1.959467408596538e-05,-8.121565770125017e-06,5.523442450794391e-05
-2.4256956749013625e-05,2.4203851353377104e-05,-1.1059368262067437e-05,5.516628152690828e-05
-2.62737139564706e-05,3.325588477309793e-05,-1.1595298929023556e-05,5.6499495258321986e-05
-2.7765205231844448e-05,3.9982474845601246e-05,-8.577899279771373e-06,5.6979140936164185e-05
-2.683059938135557e-05,4.4525171688292176e-05,-7.880242264945991e-06,5.676280852640048e-05
-2.278514511999674e-05,4.3284868297632784e-05,-1.0954162462439854e-05,5.665294884238392e-05
-1.9752234948100522e-05,3.6463265132624656e-05,-1.3055990166321862e-05,5.9929116105195135e-05
-2.2715954401064664e-05,2.5118370103882626e-05,-1.628181416890584e-05,6.490527448477224e-05
-2.7143865736434236e-05,1.1687097867252305e-05,-1.9422348486841656e-05,6.083552216296084e-05
-2.742224205576349e-05,6.615290658373851e-06,-1.7025047782226466e-05,5.7488621678203344e-05
-2.4984505216707475e-05,5.454920483316528e-06,-1.0307528100383934e-05,5.805210457765497e-05
-2.3166683604358695e-05,-5.690918897016672e-06,-3.841698344331235e-06,6.339258106891066e-05
-2.536571628297679e-05,-2.492598105163779e-05,-3.7547069950960577e-06,6.894549005664885e-05
-2.9046921554254368e-05,-4.8076653911266476e-05,-6.3653978941147216e-06,6.920920714037493e-05
-2.9850507416995242e-05,-6.648621638305485e-05,-4.906118192593567e-06,6.717442010995e-05
-2.847637551894877e-05,-6.487528298748657e-05,9.120348636315612e-07,6.262411625357345e-05
-2.6848645575228147e-05,-4.332424214226194e-05,6.182617198646767e-06,6.217321788426489e-05
-2.909509203163907e-05,-5.96866084379144e-06,4.435576556716114e-06,6.324524292722344e-05
-2.9432036171783693e-05,3.890072548529133e-05,-2.1762029973615427e-06,6.661473889835179e-05
-2.468774255248718e-05,6.82943282299675e-05,-6.041067081241636e-06,7.198681123554707e-05
-2.0718616724479944e-05,6.584616494365036e-05,-5.7685497267812025e-06,8.06297393864952e-05
-2.003851841436699e-05,4.958663703291677e-05,-5.059775048721349e-06,8.796420297585428e-05
-2.3162179786595516e-05,4.329336297814734e-05,-7.435088264173828e-06,8.799853821983561e-05
-2.5369361537741497e-05,5.28650198248215e-05,-1.396409970766399e-05,8.548290497856215e-05
-2.5732557332958095e-05,5.209351729718037e-05,-1.982756657525897e-05,8.624237671028823e-05
-2.8586680855369195e-05,1.5219990018522367e-05,-2.0496376237133518e-05,8.813464228296652e-05
-3.354305954417214e-05,-2.960814344987739e-05,-1.5579886166960932e-05,8.91846211743541e-05
-3.493576878099702e-05,-3.7059096939628944e-05,-8.239991984737571e-06,9.07820722204633e-05
-3.112048943876289e-05,-1.0973679309245199e-05,-7.147644396354735e-07,9.043978207046166e-05
-2.540909372328315e-05,1.713255733193364e-05,1.0432692079120898e-06,8.868788427207619e-05
-2.2240772523218766e-05,3.520044992910698e-05,-4.125849045522045e-06,8.658091246616095e-05
-2.321585634490475e-05,3.971430123783648e-05,-9.771145414561033e-06,8.258504385594279e-05
-2.4315795599250123e-05,3.9485617890022695e-05,-1.3591874449048191e-05,7.6497090049088e-05
-2.3122162019717507e-05,6.778808165108785e-05,-1.3914666851633228e-05,7.284042658284307e-05
-2.6344145226175897e-05,0.00014194984396453947,-1.5354868082795292e-05,7.198267849162221e-05
-3.117249798378907e-05,0.00020823421073146164,-1.8349881429458037e-05,6.813109939685091e-05
-3.276318602729589e-05,0.00021239122725091875,-2.058992140518967e-05,6.760422547813505e-05
-2.807429336826317e-05,0.00016216609219554812,-1.9125685867038555e-05,7.366458885371685e-05
-2.2963360606809147e-05,7.805208588251844e-05,-1.468641494284384e-05,7.855978037696332e-05
-2.3620683350600302e-05,-2.0237377611920238e-05,-1.2076226994395256e-05,7.925173122202978e-05
-2.5109869966399856e-05,-9.1384987172205e-05,-9.459954526391812e-06,7.557983917649835e-05
-2.3264226911123842e-05,-0.00010538400965742767,-9.794096513360273e-06,7.234263466671109e-05
-1.9689758119056933e-05,-9.399186819791794e-05,-9.052751920535229e-06,7.148429722292349e-05
-2.183330070693046e-05,-9.645759564591572e-05,-6.778901934012538e-06,7.075253233779222e-05
-2.5467377781751566e-05,-0.0001024094017338939,-5.520408649317687e-06,7.046791142784059e-05
-2.6094445274793543e-05,-8.649472147226334e-05,-6.032947567291558e-06,7.361301686614752e-05
-2.011725155171007e-05,-6.711177411489189e-05,-8.518085451214574e-06,7.623247074661776e-05
-1.3351085726753809e-05,-6.593091529794037e-05,-1.1556168828974478e-05,7.439099863404408e-05
-1.1224075933569111e-05,-5.5189892009366304e-05,-1.2296574823267292e-05,7.001123594818637e-05
-1.1772375728469342e-05,-1.3768771168543026e-05,-1.0303598173777573e-05,6.697340722894296e-05
-1.4416070371225942e-05,3.889921572408639e-05,-9.952751497621648e-06,6.697862409055233e-05
-1.9714425434358418e-05,7.881278725108132e-05,-1.200385668198578e-05,6.632140139117837e-05
-2.5305884264525957e-05,9.588466491550207e-05,-1.5137542504817247e-05,6.420402496587485e-05
-2.9289578378666192e-05,8.136699761962518e-05,-1.8080550944432616e-05,6.149799446575344e-05
-3.0167573640937917e-05,5.019849049858749e-05,-1.6995967598631978e-05,6.0068890888942406e-05
-2.8441038011806086e-05,3.145226219203323e-05,-1.1730629921657965e-05,5.985067764413543e-05
-2.918829159170855e-05,2.8283262508921325e-05,-1.0267990546708461e-05,5.863780825166032e-05
-2.982801197504159e-05,2.9068200092297047e-05,-9.450072866457049e-06,5.735715967603028e-05
-2.9060294764349237e-05,3.5910281440010294e-05,-4.400830675876932e-06,5.670911559718661e-05
-2.7101968953502364e-05,4.567200812743977e-05,5.958840461062209e-07,5.616718408418819e-05
-2.321892861800734e-05,4.251006248523481e-05,1.6730189145164331e-06,5.6908866099547595e-05
-1.904430246213451e-05,2.303817745996639e-05,-6.154929792501207e-07,5.605404294328764e-05
-1.6658375898259692e-05,1.4001829185872339e-05,-8.802091542747803e-06,4.992104368284345e-05
-1.9544875613064505e-05,2.1430125343613327e-05,-1.8528153304941952e-05,4.42295495304279e-05
-2.7609761673375033e-05,3.046071833523456e-05,-2.374872019572649e-05,4.379156598588452e-05
-3.253430622862652e-05,3.421060318942182e-05,-2.4632510758237913e-05,4.678549157688394e-05
-2.9025268304394558e-05,4.258449553162791e-05,-2.6269412046531215e-05,4.974897819920443e-05
-2.272846904816106e-05,5.9258996770950034e-05,-2.6586076273815706e-05,4.9928788939723745e-05
-1.986019196920097e-05,5.702017733710818e-05,-2.2120853827800602e-05,4.7496629122179e-05
-1.7224574548890814e-05,3.668785575428046e-05,-1.803495251806453e-05,4.720802462543361e-05
-1.6436464647995308e-05,1.4715125871589407e-05,-1.3997620044392534e-05,5.10557038069237e-05
-1.849009277066216e-05,-1.901551627270237e-06,-9.516415047983173e-06,5.5592616263311356e-05
-2.0828156266361475e-05,-1.2234710993652698e-05,-3.876241407851921e-06,5.9021560446126387e-05
-2.265037619508803e-05,-1.2209196711410186e-06,4.414969225763343e-06,6.148719694465399e-05
-2.1537882275879383e-05,3.425870090723038e-05,1.3124641554895788e-05,6.121463229646906e-05
-1.7529615433886647e-05,6.914063123986125e-05,1.3766748452326283e-05,5.321875141817145e-05
-1.6393783880630508e-05,8.125908789224923e-05,7.530969014624134e-06,4.3481119064381346e-05
-1.989244992728345e-05,8.856353088049218e-05,1.102897726923402e-06,4.0385191823588684e-05
-2.2213987904251553e-05,0.00011693588021444157,-3.508414920361247e-06,4.200631155981682e-05
-2.0152445358689874e-05,0.00013307936023920774,-5.675624834111659e-06,4.375715434434824e-05
-1.6614638298051432e-05,6.658078928012401e-05,-6.422955721063772e-06,4.3906726205023006e-05
-1.5000415260146838e-05,-5.936421803198755e-05,-9.071514796232805e-06,4.221276685711928e-05
-1.627609526622109e-05,-0.00010099932114826515,-1.288119801756693e-05,4.043246008222923e-05
-2.0793811927433126e-05,-1.2285874618100934e-05,-1.5010141396487597e-05,4.036522295791656e-05
-2.4479273633915e-05,8.696915028849617e-05,-1.3389630112214945e-05,3.9442100387532264e-05
-2.5333460143883713e-05,0.00011119772534584627,-8.692768460605294e-06,3.6816396459471434e-05
-2.6253597752656788e-05,9.632384171709418e-05,-8.542904652131256e-06,3.448313145781867e-05
-2.5501363779767416e-05,8.48084528115578e-05,-1.4186131011229008e-05,3.497804937069304e-05
-2.5763745725271292e-05,8.03619041107595e-05,-1.9003548004548065e-05,3.518254015943967e-05
-2.736769602051936e-05,4.6649940486531705e-05,-1.9246301235398278e-05,3.386426396900788e-05
-2.8075464797439054e-05,-3.66241110896226e-05,-2.0104424038436264e-05,3.1041250622365624e-05
-2.8560370992636308e-05,-8.85261979419738e-05,-2.1714578906539828e-05,2.8773947633453645e-05
-2.6963103664456867e-05,-7.35658104531467e-05,-2.1276309780660085e-05,3.128404568997212e-05
-2.5777491828193888e-05,-4.9675581976771355e-05,-2.0668421711889096e-05,3.5723507608054206e-05
-2.2759984858566895e-05,-2.9166338208597153e-05,-2.133559792127926e-05,3.9126309275161475e-05
-2.0895513443974778e-05,-5.189882358536124e-06,-2.1931691662757657e-05,3.8888902054168284e-05
-2.2505742890643887e-05,7.999484296306036e-06,-2.3953629352035932e-05,3.7593519664369524e-05
-2.7019752451451495e-05,5.650055754813366e-06,-3.0337314456119202e-05,3.457762431935407e-05
-3.0385523132281378e-05,2.7883761504199356e-06,-3.437675695749931e-05,3.26072949974332e-05
-3.0150798920658417e-05,1.2288541256566532e-05,-3.095564170507714e-05,3.453598037594929e-05
-2.955369018309284e-05,2.2759893909096718e-05,-2.2979873392614536e-05,3.7641078961314633e-05
-3.117915184702724e-05,1.586321013746783e-05,-1.6093621525214985e-05,4.113236354896799e-05
-3.2789321267046034e-05,-2.3924969809741015e-06,-1.1182727575942408e-05,4.473077933653258e-05
-3.189285780536011e-05,-1.1972658285230864e-05,-8.056343176576775e-06,4.7670000640209764e-05
-3.0966155463829637e-05,1.79465146743496e-07,-7.024226761132013e-06,4.695722600445151e-05
-3.112261401838623e-05,2.181702438974753e-05,-7.482579349016305e-06,4.2414478230057284e-05
-3.1732044590171427e-05,3.537880184012465e-05,-1.146454997069668e-05,3.8026028050808236e-05
-3.122220005025156e-05,4.0524791984353215e-05,-1.665601485001389e-05,3.9071870560292155e-05
-3.122468842775561e-05,4.372101466287859e-05,-1.7910873793880455e-05,4.4646432797890157e-05
-3.063573967665434e-05,4.579076630761847e-05,-1.7133806977653876e-05,4.7631234338041395e-05
-2.8416834538802505e-05,3.169455158058554e-05,-1.882817923615221e-05,4.554027327685617e-05
-2.7574982595979236e-05,-1.0938982995867264e-05,-2.1896375983487815e-05,4.637875463231467e-05
-2.7276315449853428e-05,-5.372379018808715e-05,-2.326719550183043e-05,5.016710565541871e-05
-2.5627390641602688e-05,-5.242458428256214e-05,-1.855409936979413e-05,5.1850511226803064e-05
-2.72835859504994e-05,-1.8032242223853245e-05,-9.969007805921137e-06,5.2197308832546696e-05
-3.3193413401022553e-05,6.639402727159904e-06,-6.039266281732125e-06,5.480433537741192e-05
-3.4782042348524556e-05,6.076928002585191e-06,-6.323436991806375e-06,5.389263606048189e-05
-3.298332740087062e-05,1.060319050338876e-06,-4.815810825675726e-06,4.980327867087908e-05
-3.350525730638765e-05,1.0938446393993217e-05,-5.662622697855113e-06,4.772928878082894e-05
-3.15554098051507e-05,2.406410567346029e-05,-1.0182337973674294e-05,4.6726621803827584e-05
-2.980714270961471e-05,3.0229792173486203e-05,-1.1388497114239726e-05,4.6007178752915934e-05
-2.7076970582129434e-05,3.98034680983983e-05,-7.793867553118616e-06,4.6208973799366504e-05
-2.5859430024866015e-05,6.783074059057981e-05,-1.4952005358281895e-06,5.044091813033447e-05
-2.5744033337105066e-05,0.00011110057675978169,2.4071346160781104e-06,5.354543463909067e-05
-2.2908649043529294e-05,0.00015828473260626197,4.3230193114141e-06,5.2642957598436624e-05
-1.9491662897053175e-05,0.0002050534967565909,7.803362677805126e-06,5.311666973284446e-05
-1.8913435269496404e-05,0.00022515426098834723,1.081665868696291e-05,5.566221079789102e-05
-2.1655634554917924e-05,0.00019310606876388192,8.195670488930773e-06,5.573415182880126e-05
-2.1482686861418188e-05,0.00012030103243887424,3.052194870178937e-06,5.534256706596352e-05
-1.7309941540588625e-05,3.553920396370813e-05,-3.410476097087667e-07,5.6028169638011605e-05
-1.542097561468836e-05,-4.651369454222731e-05,-4.755098871100927e-06,5.494333527167328e-05
-1.9315250028739683e-05,-9.899381984723732e-05,-8.810509825707413e-06,5.274075374472886e-05
-2.360361577302683e-05,-9.873435919871554e-05,-7.06388436810812e-06,5.287606836645864e-05
-2.2547807020600885e-05,-6.665140972472727e-05,-1.3600903230326367e-06,5.5942458857316524e-05
-1.6717176549718715e-05,-3.868703788612038e-05,-5.796204050056986e-07,5.9937821788480505e-05
-1.5422141586896032e-05,-2.5556437321938574e-05,-4.856300165556604e-06,6.169430707814172e-05
-1.9714048903551884e-05,-2.1950598238618113e-05,-9.432792467123363e-06,6.071259849704802e-05
-2.4664148440933786e-05,-1.579518720973283e-05,-8.821324627206195e-06,6.117008160799742e-05
-3.0215609513106756e-05,4.276484105503187e-06,-2.4986720745800994e-06,6.303380359895527e-05
-3.595516682253219e-05,2.5869114324450493e-05,2.8230016368979705e-07,6.480175943579525e-05
-3.6059675039723516e-05,3.3158936275867745e-05,-1.734919010232261e-06,6.693953037029132e-05
-3.393056977074593e-05,2.7357080398360267e-05,-4.1257280827267095e-06,6.575501174665987e-05
-3.273386391811073e-05,2.008082992688287e-05,-8.586026524426416e-06,6.147564999992028e-05
-3.241911326767877e-05,2.480882903910242e-05,-1.1129268386866897e-05,6.133133138064295e-05
-3.374560037627816e-05,2.68638050329173e-05,-1.1760571396735031e-05,6.396989920176566e-05
-3.343482603668235e-05,1.4801177712797653e-05,-1.4835088222753257e-05,6.356990343192592e-05
-3.215797187294811e-05,-1.32923821638542e-06,-1.4613015991926659e-05,6.291883619269356e-05
-3.092725819442421e-05,-1.4238658877729904e-05,-1.1285344953648746e-05,6.29952919553034e-05
-3.092072802246548e-05,-6.983254024817143e-06,-9.44710336625576e-06,6.604261579923332e-05
-3.068606383749284e-05,2.1875717720831744e-05,-7.119601832528133e-06,6.964998465264216e-05
-2.8659649615292437e-05,5.564088132814504e-05,-3.6850906326435506e-06,6.820997805334628e-05
-2.7873564249603078e-05,7.39854876883328e-05,-2.8754991490131943e-06,6.30660360911861e-05
-2.9847209589206614e-05,6.450109503930435e-05,-4.878681465925183e-06,5.794053140562028e-05
-3.317278969916515e-05,2.9810926207574084e-05,-5.8726359384309035e-06,5.454421989270486e-05
-3.519166057230905e-05,-4.637268830265384e-06,-6.659791324636899e-06,5.25043869856745e-05
-3.3257932955166325e-05,-1.3317380762600806e-05,-8.17806812847266e-06,5.35686885996256e-05
-2.741845673881471e-05,7.250215276144445e-06,-8.300531590066385e-06,5.7678731536725536e-05
-2.4277189368149266e-05,3.0854265787638724e-05,-5.960102043900406e-06,6.310285971267149e-05
-2.500683876860421e-05,3.8114139897516e-05,-1.9525227799022105e-06,6.671157461823896e-05
-2.4582388505223207e-05,3.713156911544502e-05,-2.2722230141880573e-07,6.646899419138208e-05
-2.223333649453707e-05,3.8899172068340704e-05,-1.5275658142854809e-06,6.422339356504381e-05
-2.1108411601744592e-05,4.2597297579050064e-05,-2.720624706853414e-06,6.487825885415077e-05
-2.0819159544771537e-05,4.5235923607833683e-05,-4.250416168360971e-06,6.718479562550783e-05
-1.9745320969377644e-05,5.147700721863657e-05,-7.090439339663135e-06,6.620949716307223e-05
-2.1284338799887337e-05,6.787533493479714e-05,-9.978215530281886e-06,6.217738700797781e-05
-2.6619014533935115e-05,8.100757258944213e-05,-1.3952955669083167e-05,5.766444519395009e-05
-3.113766069873236e-05,6.61491067148745e-05,-1.7611497241887264e-05,5.522368155652657e-05
-3.3886310120578855e-05,3.527405715431087e-05,-1.7323756765108556e-05,5.933543070568703e-05
-3.423370799282566e-05,1.931951192091219e-05,-1.320398678217316e-05,6.697596109006554e-05
-3.0181730835465714e-05,2.6487841751077212e-05,-9.217151273333002e-06,7.191985787358135e-05
-2.5745490347617306e-05,4.334209006628953e-05,-8.932212949730456e-06,6.852284423075616e-05
-2.433786721667275e-05,5.811796654597856e-05,-1.183453878184082e-05,6.144384678918868e-05
-2.8776887120329775e-05,6.215731264092028e-05,-1.3436808330880012e-05,6.169002153910697e-05
-3.2424883102066815e-05,6.800272967666388e-05,-1.1110789273516275e-05,6.451412627939135e-05
-3.332140840939246e-05,8.045332651818171e-05,-6.9750499278598e-06,6.44940955680795e-05
-3.343617936479859e-05,8.366830297745764e-05,-4.380913196655456e-06,6.287341966526583e-05
-3.143389039905742e-05,7.400337199214846e-05,-8.561193681089208e-06,6.073470285627991e-05
-2.9277587600518018e-05,5.597309427685104e-05,-1.8272094166604802e-05,5.739769039792009e-05
-2.8111426217947155e-05,3.1929339456837624e-05,-2.883836714318022e-05,5.58156352781225e-05
-2.932212191808503e-05,-9.295611107518198e-07,-3.4858585422625765e-05,5.7393801398575306e-05
-3.28112073475495e-05,-3.949174060835503e-05,-3.4301832783967257e-05,5.877838339074515e-05
-3.5411558201303706e-05,-6.178398325573653e-05,-3.213237505406141e-05,5.6813911214703694e-05
-3.59053592546843e-05,-5.2533378038788214e-05,-2.8506114176707342e-05,5.486161171575077e-05
-3.5103876143693924e-05,-2.0367686374811456e-05,-2.0265688362997025e-05,5.340287316357717e-05
-3.2648818887537345e-05,9.091506399272475e-06,-1.0165206731471699e-05,5.0570550229167566e-05
-2.9917351639596745e-05,2.029492134170141e-05,-7.698139597778209e-06,5.037450682721101e-05
-2.950177076854743e-05,1.5315779819502495e-05,-1.5908497516647913e-05,5.2377050451468676e-05
-3.188770642736927e-05,4.073505351698259e-06,-2.5585386538296007e-05,5.380627771955915e-05
-3.309559906483628e-05,-7.624714726262027e-07,-2.6192350560449995e-05,5.25188515894115e-05
-3.280441524111666e-05,7.4321824286016636e-06,-1.3416704859992024e-05,4.904064189759083e-05
-3.3540585718583316e-05,2.0239376681274734e-05,4.738042662211228e-06,4.6372690121643245e-05
-3.342566196806729e-05,2.8666845537372865e-05,9.726988537295256e-06,4.806839569937438e-05
-3.0015275115147233e-05,3.891834421665408e-05,-1.2878424513473874e-06,5.349915227270685e-05
-2.3713997507002205e-05,4.657128010876477e-05,-1.2761211110046133e-05,5.7184752222383395e-05
-1.5308401998481713e-05,4.191328480374068e-05,-1.4723011190653779e-05,5.63800786039792e-05
-1.1819286555692088e-05,2.889780080295168e-05,-1.0756133633549325e-05,5.703877468477003e-05
-1.6038449757616036e-05,1.3493197002389934e-05,-7.526008175773313e-06,5.88610528211575e-05
-1.735660043777898e-05,3.6945418742106995e-06,-5.0518142415967304e-06,6.197358015924692e-05
-1.4234733498597052e-05,4.717324827652192e-06,5.499089752447617e-07,6.59596043988131e-05
-1.3611790564027615e-05,7.738070053164847e-06,8.80485004017828e-06,6.553347338922322e-05
-1.3155966371414252e-05,1.199793678097194e-05,1.642961797188036e-05,6.741899414919317e-05
-1.0464356819284149e-05,1.4972302778915036e-05,1.5860650819377042e-05,7.16554350219667e-05
-1.0113538337463979e-05,1.629878352105152e-05,5.868531388841802e-06,7.387728692265227e-05
-1.2425184650055598e-05,1.2863193660450634e-05,-3.2928901418927126e-06,7.204159919638187e-05
-1.208328740176512e-05,-1.3905703610817e-07,-6.010024662828073e-06,6.783239950891584e-05
-1.0347540410293732e-05,-1.764582884788979e-05,-5.555531515710754e-06,6.569795368704945e-05
-1.3235850019555073e-05,-2.7123314794152975e-05,-5.464897640194977e-06,6.529261008836329e-05
-1.7713673514663242e-05,-1.997544677578844e-05,-2.716212975428789e-06,6.460549047915265e-05
-2.1377474695327692e-05,-3.32748754772183e-06,-5.320080731507915e-07,6.346607551677153e-05
-2.486533048795536e-05,1.6044958101701923e-05,7.161967232605093e-07,6.100349855842069e-05
-2.5647550501162186e-05,4.029777483083308e-05,2.6915329272014787e-06,5.819900252390653e-05
-2.4578508600825444e-05,6.708357977913693e-05,4.1809298636508174e-06,5.94683297094889e-05
-2.6312061891076155e-05,7.509084389312193e-05,3.03865090245381e-06,6.284657138166949e-05
-3.05942703562323e-05,6.298933294601738e-05,-2.1681162252207287e-06,6.186672544572502e-05
-3.255341653130017e-05,6.146079249447212e-05,-5.6797234719851986e-06,5.6778146245051175e-05
-3.189194103470072e-05,8.096587407635525e-05,-4.057106252730591e-06,5.3034451411804184e-05
-2.8777691113646142e-05,9.439828136237338e-05,-1.5123954426599084e-06,5.294003858580254e-05
-2.350327849853784e-05,8.473744674120098e-05,-4.60002866020659e-06,5.58220999664627e-05
-1.9209035599487834e-05,5.8480411098571494e-05,-1.0461093552294187e-05,5.790270370198414e-05
-1.8926702978205867e-05,2.529496487113647e-05,-1.212162351293955e-05,5.589169086306356e-05
-2.2954485757509246e-05,-5.045236775913509e-06,-1.0168506378249731e-05,5.223211701377295e-05
-2.795038562908303e-05,-1.7823183952714317e-05,-1.161538421001751e-05,5.255167343420908e-05
-2.9034530598437414e-05,-1.5897201592451893e-05,-1.6221812984440476e-05,5.346082980395295e-05
-2.7869886253029108e-05,-1.5672672816435806e-05,-1.5215915482258424e-05,5.646136196446605e-05
-2.9514407287933864e-05,-1.5870085917413235e-05,-1.1068569619965274e-05,6.200764619279653e-05
-3.38339050358627e-05,-2.101468271575868e-05,-1.0351187484047841e-05,6.261307134991512e-05
-3.613814260461368e-05,-3.29496142512653e-05,-1.2771208275808021e-05,5.948369289399125e-05
-3.494918200885877e-05,-3.4817632695194334e-05,-1.7813687009038404e-05,5.706337469746359e-05
-3.4505570511100814e-05,-1.789048474165611e-05,-2.058368227153551e-05,5.697994856745936e-05
-3.463884422671981e-05,4.79930986330146e-06,-2.0704788767034188e-05,5.753167351940647e-05
-2.984451020893175e-05,2.0216322809574194e-05,-2.3451961169485003e-05,5.797907942906022e-05
-2.0782170395250432e-05,3.0029204935999587e-05,-2.5999224817496724e-05,5.928655809839256e-05
-1.3717944966629148e-05,3.989730976172723e-05,-2.7614260034170002e-05,6.05589484621305e-05
-1.424192487320397e-05,4.923767482978292e-05,-2.774609311018139e-05,5.800334838568233e-05
-1.883335062302649e-05,5.677340232068673e-05,-2.60382512351498e-05,5.138860797160305e-05
-1.7834920072345994e-05,6.295412458712235e-05,-2.6564781364868395e-05,4.729025749838911e-05
-1.3517715160560329e-05,5.537303150049411e-05,-2.5820530936471187e-05,4.810848258784972e-05
-1.26435143101844e-05,2.745874553511385e-05,-2.2253596398513764e-05,4.967323548044078e-05
-1.7199372450704686e-05,9.943947532065067e-08,-2.031688745773863e-05,5.2087518270127475e-05
-2.354575008212123e-05,6.332583666335267e-07,-2.087502616632264e-05,5.394832987803966e-05
-2.818255961756222e-05,2.4272243535961024e-05,-1.8839851691154763e-05,5.262852573650889e-05
-3.1229821615852416e-05,4.5679578761337325e-05,-1.34736346808495e-05,5.1495517254807055e-05
-3.230022412026301e-05,5.817729834234342e-05,-7.22705635780585e-06,5.335759851732291e-05
-2.8834358090534806e-05,6.779163231840357e-05,-1.7560737433086615e-06,5.424398113973439e-05
-2.447843326081056e-05,7.128539436962456e-05,-4.513482849688444e-07,5.4824613471282646e-05
-2.6776266167871654e-05,6.228171696420759e-05,-4.058212198287947e-06,5.736836828873493e-05
-3.200068022124469e-05,4.8042344133136794e-05,-6.366801699186908e-06,5.838708602823317e-05
-3.241140075260773e-05,3.873898822348565e-05,-5.6156909522542264e-06,5.9960424550808966e-05
-2.918511745519936e-05,3.7573940062429756e-05,-4.708192136604339e-06,6.166448292788118e-05
-2.9540606192313135e-05,3.854163514915854e-05,-3.130930053885095e-06,6.373514042934403e-05
-3.2455343898618594e-05,3.087283039349131e-05,-1.7814260218074196e-06,6.616133032366633e-05
-3.376615131855942e-05,1.602502743480727e-05,-1.5890799431872438e-06,6.252120510907844e-05
-3.184206070727669e-05,-1.5695621868871967e-06,-4.414056547830114e-06,5.8093908592127264e-05
-3.293830741313286e-05,-1.7641112208366394e-05,-7.86702184996102e-06,5.493056960403919e-05
-3.637575719039887e-05,-2.525929630792234e-05,-8.226395038946066e-06,4.9057387514039874e-05
-3.382070281077176e-05,-2.0760278857778758e-05,-7.492668373743072e-06,4.462057404452935e-05
-2.7195952498004772e-05,-7.429468951158924e-06,-8.981709470390342e-06,4.3549680412979797e-05
-1.9837561922031455e-05,9.976050023396965e-06,-1.070593498297967e-05,4.733260357170366e-05
-1.6956764739006758e-05,1.823655293264892e-05,-9.635838068788871e-06,5.363012678571977e-05
-1.7579952327650972e-05,1.0408541129436344e-05,-7.499553248635493e-06,5.863921614945866e-05
-2.160141411877703e-05,3.987431114182982e-07,-5.810274615214439e-06,6.266716809477657e-05
-2.358810161240399e-05,-1.926229288073955e-06,-2.7831281386170303e-06,6.653104355791584e-05
-2.127619882230647e-05,3.2961434044409543e-06,7.904199037511717e-07,6.707342981826514e-05
-2.1393030692706816e-05,8.916576007322874e-06,5.543774932448287e-07,6.304650014499202e-05
-2.498335379641503e-05,1.2962141227035318e-05,-3.85800922231283e-06,6.01471692789346e-05
-2.8025022402289324e-05,2.0008168576168828e-05,-7.504241239075782e-06,6.259408837649971e-05
-2.7217480237595737e-05,3.2479372748639435e-05,-8.639583029435016e-06,6.713797483826056e-05
-2.586702430562582e-05,4.1392817365704104e-05,-9.880135621642694e-06,6.608982221223414e-05
-2.8133090381743386e-05,4.166563303442672e-05,-1.1272387382632587e-05,5.976377724437043e-05
-3.5423967347014695e-05,3.872002343996428e-05,-1.0903653674176894e-05,5.352228254196234e-05
-4.2239076719852164e-05,3.58178949682042e-05,-1.2941277418576647e-05,4.9258742365054786e-05
-4.4209482439327985e-05,3.4264521673321724e-05,-1.8793312847265042e-05,4.7929475840646774e-05
-4.138566509936936e-05,3.227094202884473e-05,-2.3089713067747653e-05,4.833223283640109e-05
-3.654531974461861e-05,2.5969497073674574e-05,-2.3370990675175563e-05,4.95595668326132e-05
-2.8901666155434214e-05,2.0202876839903183e-05,-1.9375533156562597e-05,5.0457983888918534e-05
-2.0192555894027464e-05,1.9336530385771766e-05,-1.4261794603953604e-05,5.042125121690333e-05
-1.667138894845266e-05,2.2074807930039242e-05,-8.344008165295236e-06,5.247522494755685e-05
-2.1758258299087174e-05,2.112895526806824e-05,-3.747437176571111e-06,5.57767525606323e-05
-2.781851617328357e-05,1.605247234692797e-05,-1.9824133232759777e-06,5.90634772379417e-05
-2.8577778721228242e-05,1.6512140064151026e-05,-2.5631420612626243e-06,6.146374653326347e-05
-2.770815626718104e-05,2.0007377315778285e-05,-5.345759291230934e-06,6.26152686891146e-05
-2.723876605159603e-05,3.0100824005785398e-05,-1.5682804814787232e-06,6.671941082458943e-05
-2.720222983043641e-05,4.670100679504685e-05,5.879483069293201e-06,7.207089220173657e-05
-2.5394447220605798e-05,5.4666452342644334e-05,6.520470378745813e-06,7.38790477043949e-05
-2.1369320165831596e-05,4.7038593038450927e-05,3.630667038123647e-07,7.337101851589978e-05
-1.766590321494732e-05,3.389180710655637e-05,-7.434346116497181e-06,6.952363764867187e-05
-1.8703618479776196e-05,2.655297430464998e-05,-1.399905977450544e-05,6.309756281552836e-05
-2.7876532840309665e-05,2.1611163901980035e-05,-1.942763992701657e-05,5.70972915738821e-05
-3.697938154800795e-05,1.180257913802052e-05,-2.2550675566890277e-05,5.364617391023785e-05
-3.698681030073203e-05,-2.149510436311175e-07,-2.234924613730982e-05,5.559873898164369e-05
-3.115709841949865e-05,-1.5296981246137875e-06,-1.9252474885433912e-05,6.187005783431232e-05
-2.4707009288249537e-05,2.4605598810012452e-05,-1.4549050320056267e-05,6.507610669359565e-05
-1.9709719708771445e-05,6.860087160021067e-05,-1.063821036950685e-05,6.327156734187156e-05
-1.7379012206220068e-05,9.698071517050266e-05,-7.726804142293986e-06,6.156048766570166e-05
-1.7746198864188045e-05,9.239821520168334e-05,-4.7017410906846635e-06,6.024282265570946e-05
-1.754491859173868e-05,7.067840488161892e-05,-1.9794722447841195e-06,5.787198824691586e-05
-1.7146501704701222e-05,5.368778874981217e-05,-7.525639489358582e-07,5.67571769352071e-05
-1.8840744814951904e-05,4.520901711657643e-05,-6.943139396753395e-07,5.8710324083222076e-05
-2.1950665541226044e-05,4.009109761682339e-05,4.163197218076675e-07,5.958754263701849e-05
-2.3039014195092022e-05,2.9556251320173033e-05,7.632204415131127e-07,5.979932757327333e-05
-2.091962414851878e-05,-3.357760988365044e-06,-3.275575409134035e-06,6.02484360570088e-05
-2.157598100893665e-05,-5.907032755203545e-05,-1.2492672794905957e-05,5.6907738326117396e-05
-2.3152007997850887e-05,-9.6529460279271e-05,-2.1021936845500022e-05,5.4285403166431934e-05
-2.0683542970800772e-05,-7.997106877155602e-05,-2.4692611987120472e-05,5.821111335535534e-05
-1.9722268916666508e-05,-1.3848785783920903e-05,-2.4391005354118533e-05,6.092489275033586e-05
-2.3753194909659214e-05,5.0151887990068644e-05,-1.983957008633297e-05,5.7861514505930245e-05
-2.868857336579822e-05,6.448737985920161e-05,-1.924973366840277e-05,5.261644400889054e-05
-2.981828583870083e-05,4.349672963144258e-05,-2.6353614885010757e-05,4.751167580252513e-05
-2.8133186788181774e-05,2.2756132239010185e-05,-3.437290069996379e-05,4.380138125270605e-05
-2.9004697353229858e-05,1.4407000890059862e-05,-3.989261676906608e-05,4.7255463869078085e-05
-3.285456477897242e-05,1.612265987205319e-05,-3.8094127376098186e-05,5.574924580287188e-05
-3.3070522476918995e-05,1.4152362382446881e-05,-2.9470176741597243e-05,5.983742812532e-05
-3.044571349164471e-05,-2.0800573111046106e-05,-1.7460586605011486e-05,6.145035877125338e-05
-2.589776886452455e-05,-6.254308391362429e-05,-4.434612037584884e-06,6.462445162469521e-05
-1.954545223270543e-05,-6.15496828686446e-05,6.24175117991399e-06,7.095216278685257e-05
-1.3360358025238384e-05,-1.6220723409787752e-05,1.355047061224468e-05,7.627483864780515e-05
-9.059445801540278e-06,4.083311068825424e-05,1.55057932715863e-05,7.998086948646232e-05
-8.968251677288208e-06,7.804126653354615e-05,1.2484448234317824e-05,8.163106394931674e-05
-1.1027002074115444e-05,9.187526302412152e-05,7.754764737910591e-06,7.74861327954568e-05
-1.2763987797370646e-05,9.187547402689233e-05,1.3668512792719412e-06,7.068637933116406e-05
-1.6019705071812496e-05,8.787585829850286e-05,-6.119251793279545e-06,6.776771624572575e-05
-2.222754483227618e-05,7.827376975910738e-05,-1.168091876024846e-05,6.764304271200672e-05
-2.686055267986376e-05,6.33977324469015e-05,-1.3350976587389596e-05,6.817850226070732e-05
-2.7376305297366343e-05,4.7530123993055895e-05,-1.3601657883555163e-05,7.243116851896048e-05
-2.4439652406726964e-05,3.649907012004405e-05,-1.4829856809228659e-05,7.832006667740643e-05
-2.296103775734082e-05,3.25762594002299e-05,-1.3825539099343587e-05,8.106111636152491e-05
-2.681519981706515e-05,3.523156192386523e-05,-1.0089653187606018e-05,7.982494571479037e-05
-3.287545405328274e-05,3.6897730751661584e-05,-6.884058166178875e-06,7.701430877204984e-05
-3.656356057035737e-05,3.300181924714707e-05,-4.965228981745895e-06,7.349924271693453e-05
-3.276452116551809e-05,2.5242030460503884e-05,-6.171493168949382e-06,6.888265488669276e-05
-2.4286893676617183e-05,2.2937787434784696e-05,-1.1860150152642746e-05,6.68952998239547e-05
-2.2868485757499002e-05,3.402624133741483e-05,-8.588572200096678e-06,6.906581984367222e-05
-2.8118278351030312e-05,5.176906051929109e-05,1.6467067780467914e-06,7.061701762722805e-05
-3.0357619834830984e-05,6.167514220578596e-05,4.995948529540328e-06,7.254267984535545e-05
-3.0254836019594222e-05,6.009511707816273e-05,3.157781520712888e-06,7.117638597264886e-05
-3.368524630786851e-05,5.8983572671422735e-05,2.5012354853970464e-06,6.895139813423157e-05
-3.709224984049797e-05,6.572061829501763e-05,2.643750121933408e-06,6.942189065739512e-05
-3.4447177313268185e-05,6.645728717558086e-05,-1.6631339576633763e-06,7.009253022260964e-05
-2.620701889100019e-05,5.681206312146969e-05,-5.212814357946627e-06,6.955410935916007e-05
-1.9751401850953698e-05,5.8710025768959895e-05,-7.693228326388635e-06,6.701109668938443e-05
-1.5808584066689946e-05,6.198009941726923e-05,-7.650339284737129e-06,6.693974864901975e-05
-1.3100970136292744e-05,5.509411857929081e-05,-9.31370504986262e-06,6.76687341183424e-05
-1.3971941370982677e-05,4.136120332987048e-05,-1.416078976035351e-05,6.321219552773982e-05
-1.994966260099318e-05,2.6142584829358384e-05,-1.921050170494709e-05,5.129196142661385e-05
-2.870213756978046e-05,8.014579179871362e-06,-2.7833570129587315e-05,3.753141572815366e-05
-3.879270298057236e-05,-1.3007938832743093e-05,-3.805855885730125e-05,2.321370084246155e-05
-4.7928784624673426e-05,-3.1086630770005286e-05,-4.476291360333562e-05,9.23207335290499e-06
-4.896535392617807e-05,-3.989565811934881e-05,-4.3458443542476743e-05,3.371791308381944e-06
-4.196777081233449e-05,-3.664944233605638e-05,-3.3733562304405496e-05,5.712495749321533e-06
-3.30224065692164e-05,-3.344266951899044e-05,-1.9130739019601606e-05,8.899020940589253e-06
-2.5483275749138556e-05,-3.379558984306641e-05,-1.2297678949835245e-05,1.2178903489257209e-05
-2.051893352472689e-05,-2.8933771318406798e-05,-1.4802799341850914e-05,1.4698473023599945e-05
-2.164652141800616e-05,-1.9925462765968405e-05,-1.6785839761723764e-05,1.7437885617255233e-05
-2.443160701659508e-05,-1.5601124687236734e-05,-1.352132221654756e-05,2.8805368856410496e-05
-2.3279382730834186e-05,-1.8016369722317904e-05,-9.96786548057571e-06,4.759100193041377e-05
-2.171618143620435e-05,-2.141612822015304e-05,-6.453896730818087e-06,6.558874883921817e-05
-2.2035806978237815e-05,-1.659690860833507e-05,-3.4166305340477265e-06,7.719720451859757e-05
-2.3510654500569217e-05,-1.0706922694225796e-05,-3.6170563362247776e-06,8.034078200580552e-05
-3.099714740528725e-05,-1.130175223806873e-05,-5.1928254833910614e-06,7.640736293978989e-05
-4.150236418354325e-05,-1.378320848743897e-05,-1.1882380931638181e-05,6.794433284085244e-05
-4.612297561834566e-05,-1.0491507964616176e-05,-2.0214023606968112e-05,5.872388283023611e-05
-4.2149174987571314e-05,-3.255238880228717e-06,-1.9825707568088546e-05,5.212440373725258e-05
-3.172430660924874e-05,4.6327777454280294e-06,-1.4852948879706673e-05,4.9818983825389296e-05
-2.3316721126320772e-05,1.4172447663440835e-05,-1.456752943340689e-05,5.4443116823676974e-05
-2.1836694941157475e-05,2.7239295377512462e-05,-1.7991773347603157e-05,6.39681238681078e-05
-2.2454114514403045e-05,3.885299520334229e-05,-2.049823888228275e-05,7.086519326549023e-05
-2.5097819161601365e-05,5.052912456449121e-05,-2.19856792682549e-05,7.11124885128811e-05
-2.9521625037887134e-05,6.385117012541741e-05,-2.1000454580644146e-05,6.583339563803747e-05
-3.359491893206723e-05,7.227776222862303e-05,-1.1361217730154749e-05,6.190290150698274e-05
-3.326102887513116e-05,7.172832556534559e-05,5.756663995271083e-06,6.458650750573725e-05
-2.760174720606301e-05,7.085841934895143e-05,1.9638788216980174e-05,7.099453068803996e-05
-2.0627581761800684e-05,9.054787369677797e-05,2.388893517490942e-05,8.113286457955837e-05
-1.3525511349143926e-05,0.00012526751379482448,2.0846342522418126e-05,9.135120490100235e-05
-9.021800906339195e-06,0.00014063615526538342,1.5470413927687332e-05,9.282241080654785e-05
-9.961863725038711e-06,0.00011883051774930209,9.372925887873862e-06,8.617838466307148e-05
-1.5973273548297584e-05,8.280653855763376e-05,2.7409680569689954e-06,7.935101166367531e-05
-2.3027159841149114e-05,4.383324630907737e-05,-1.965629962796811e-06,7.70998522057198e-05
-2.9341195840970613e-05,-2.7692349249264225e-06,-7.0252863224595785e-06,7.463015936082229e-05
-3.330024628667161e-05,-2.620405939524062e-05,-1.3719902199227363e-05,6.818364636274055e-05
-3.783434658544138e-05,-6.227259746083291e-06,-1.8295708287041634e-05,6.11639698036015e-05
-4.6677709178766236e-05,1.4936756087990943e-05,-1.7858934370451607e-05,5.5134274589363486e-05
-5.560436693485826e-05,-4.121002803003648e-06,-1.3670444786839653e-05,5.0380451284581795e-05
-5.501741907210089e-05,-5.9265224990667775e-05,-9.707300705485977e-06,5.1405488193267956e-05
-4.102035381947644e-05,-9.645603859098628e-05,-1.6899673482839717e-06,6.12639996688813e-05
-2.125312494172249e-05,-7.659569382667542e-05,1.9542461814126e-05,7.34282803023234e-05
-6.799020866310457e-06,-1.6831181710585952e-05,4.098402496310882e-05,7.914566231193021e-05
-3.187508355040336e-06,2.8101181669626385e-05,3.6443303542910144e-05,8.178214920917526e-05
-6.253450919757597e-06,4.2552816012175754e-05,1.8566825019661337e-05,8.438793884124607e-05
-8.650669769849628e-06,4.238737892592326e-05,5.739297193940729e-06,8.460379467578605e-05
-1.9178558432031423e-05,2.4133458282449283e-05,-8.31073793960968e-06,7.749220094410703e-05
-3.840681165456772e-05,3.1938573101797374e-06,-2.5743236619746312e-05,5.909305400564335e-05
-4.7162473492790014e-05,-1.1203686881344765e-05,-3.533660856192e-05,4.1746381612028927e-05
-3.9040533010847867e-05,-5.108954610477667e-06,-2.604638211778365e-05,3.637656845967285e-05
-2.4617722374387085e-05,8.588102900830563e-06,-9.857373697741423e-06,4.105258631170727e-05
-1.452153992431704e-05,1.7465778000769205e-05,2.014993469856563e-06,4.304283720557578e-05
-8.438069016847294e-06,1.8751581592368893e-05,5.144747774465941e-06,2.9056365747237578e-05
-3.6029125567438314e-06,1.0485402526683174e-05,3.027470711458591e-06,3.8278449210338295e-06
1.0675146313587902e-06,4.092395045063313e-07,-2.5853673832898494e-06,-8.567481927457266e-06
3.995322458649753e-06,-1.0714909421949415e-06,-9.171350029646419e-06,3.1716629109723726e-06
1.1785604101532954e-06,6.436893727368442e-06,-1.7166350517072715e-05,1.6944877643254586e-05
-6.67580752633512e-06,8.732433343539014e-06,-2.8455267965910025e-05,1.6590174709563144e-05
-1.720896216284018e-05,2.0152050637989305e-05,-4.0556762542109936e-05,1.2502026947913691e-05
-2.9952736440463923e-05,6.270437006605789e-05,-4.739578434964642e-05,1.554971095174551e-05
-3.8679823774145916e-05,0.00012291070015635341,-4.524001997197047e-05,2.2395181076717563e-05
-3.735854261321947e-05,0.0001418552710674703,-4.247457763995044e-05,2.467770354996901e-05
-2.9973816708661616e-05,9.383181168232113e-05,-4.827781594940461e-05,1.7973185094888322e-05
-2.801846494548954e-05,1.8556127542979084e-05,-5.7910561736207455e-05,1.0778285286505707e-05
-3.430218930589035e-05,-3.2905052648857236e-05,-6.175226008053869e-05,1.2088480616512243e-05
-3.885837577399798e-05,-5.409921504906379e-05,-5.986812902847305e-05,2.008143019338604e-05
-3.698776345117949e-05,-6.417548138415441e-05,-5.388178033172153e-05,3.1484843930229545e-05
-3.3874828659463674e-05,-7.87514218245633e-05,-4.691656431532465e-05,4.514438842306845e-05
-3.2679366995580494e-05,-0.00011458007793407887,-3.1784282327862456e-05,5.763316585216671e-05
-2.9022705348324962e-05,-0.0001508668065071106,-1.2508709914982319e-05,6.88368672854267e-05
-2.313885670446325e-05,-0.00011054784408770502,4.5166034396970645e-06,7.70243932493031e-05
-2.08373003260931e-05,-2.2115613319328986e-05,2.2741660359315574e-05,7.771059608785436e-05
-2.167750608350616e-05,2.391392808931414e-05,4.057832484249957e-05,7.408559758914635e-05
-2.3303204216063023e-05,-4.830125277521802e-08,4.551046731648967e-05,7.167753938119859e-05
-2.328194932488259e-05,-5.7510162150720134e-05,3.133641803287901e-05,7.370282401097938e-05
-2.01778002519859e-05,-5.419430090114474e-05,1.0262786418024916e-05,7.489635027013719e-05
-1.5653260561521165e-05,2.968569242511876e-05,-4.331398486101534e-06,7.22003387636505e-05
-1.0318137356080115e-05,0.00010341163579141721,-1.0651931916072499e-05,6.86919956933707e-05
-1.13917667476926e-05,9.021921141538769e-05,-1.2281733688723762e-05,6.436285912059247e-05
-2.015110476349946e-05,4.348929360276088e-05,-1.2630803212232422e-05,5.889716339879669e-05
-2.813272294588387e-05,3.752264456124976e-05,-1.1190729310328607e-05,5.807015622849576e-05
-2.98010854749009e-05,7.99754197942093e-05,-4.312992587074405e-06,6.349731847876683e-05
-2.4472741642966866e-05,0.0001271602523047477,7.8381299317698e-06,7.071602885844186e-05
-1.6107773262774572e-05,0.00015004818851593882,1.6554758985876106e-05,7.429734250763431e-05
-1.0743137863755692e-05,0.000153535176650621,1.81490268005291e-05,7.405873475363478e-05
-1.2865322787547484e-05,0.00015047403576318175,1.4149376511340961e-05,7.632020424352959e-05
-2.0719509848277085e-05,0.00014308914251159877,6.714706614729948e-06,8.007889846339822e-05
-2.759386734396685e-05,0.00012295786291360855,1.7672249441602617e-06,8.334496669704095e-05
-2.8559921702253632e-05,9.639634663471952e-05,-3.841391844616737e-07,8.498773240717128e-05
-2.6816496756509878e-05,7.817348523531109e-05,-3.3025378343154443e-06,8.063793211476877e-05
-2.8035181458108127e-05,7.646314043086022e-05,-1.0883354661928024e-05,7.325036131078377e-05
-3.2999585528159514e-05,7.157051732065156e-05,-2.0497258446994238e-05,6.815978122176602e-05
-3.7291010812623426e-05,5.01083632116206e-05,-2.7250034690950997e-05,6.591828423552215e-05
-3.885754995280877e-05,2.5838613510131836e-05,-2.928197500295937e-05,6.57771379337646e-05
-3.8471200241474435e-05,9.994214451580774e-06,-2.481872979842592e-05,7.008042302913964e-05
-3.965647192671895e-05,4.520414222497493e-06,-2.267543095513247e-05,7.957483467180282e-05
-4.306720438762568e-05,2.528548429836519e-05,-2.35792322200723e-05,8.71201409609057e-05
-4.184896170045249e-05,5.5830540077295154e-05,-1.424146284989547e-05,8.968804468167946e-05
-3.823472070507705e-05,6.410216155927628e-05,-2.0383465653139865e-06,8.713025454198942e-05
-3.46023662132211e-05,5.0124141125706956e-05,7.068438208079897e-07,8.178337884601206e-05
-3.17140256811399e-05,3.851788642350584e-05,-5.91778734815307e-06,7.654645014554262e-05
-3.100531466770917e-05,3.5832999856211245e-05,-1.2987075024284422e-05,7.16536451363936e-05
-2.8571586881298572e-05,3.3725584216881543e-05,-1.6098752894322388e-05,6.922658940311521e-05
-2.8479034881456755e-05,3.5383600334171206e-05,-1.213148334500147e-05,7.036035822238773e-05
-3.2591902709100395e-05,2.6853014787775464e-05,-5.179355866857804e-06,7.102076051523909e-05
-3.681407906697132e-05,-4.252307007845957e-06,-3.518821358738933e-07,6.926275818841532e-05
-3.62723003490828e-05,-2.9059294320177287e-05,2.7197133931622375e-06,6.608130934182554e-05
-3.128319440293126e-05,-1.8332819308852777e-05,2.2875842660141643e-06,6.42759187030606e-05
-2.68692947429372e-05,9.642984878155403e-06,-3.134045073238667e-06,6.251268496271223e-05
-2.5855833882815205e-05,4.034902303828858e-06,-1.0744215614977293e-05,5.942729694652371e-05
-2.5857558284769766e-05,-4.3539348553167656e-05,-1.546000930829905e-05,5.650066668749787e-05
-2.6975674700224772e-05,-7.094136526575312e-05,-1.6130408766912296e-05,5.4129439376993105e-05
-3.011033004440833e-05,-4.25866965088062e-05,-1.1083451681770384e-05,5.116723332321271e-05
-3.0969909857958555e-05,-1.3820712183587602e-06,-5.121468348079361e-06,4.80758972116746e-05
-2.6455836632521823e-05,8.803554010228254e-06,-9.628225598135032e-06,4.958015415468253e-05
-2.2726871975464746e-05,4.1221392166335136e-06,-2.374846371822059e-05,5.5727239669067785e-05
-2.536402280384209e-05,1.2360022992652375e-05,-2.8474703867686912e-05,6.295121420407668e-05
-2.6233159587718546e-05,2.5642810214776546e-05,-1.660469570197165e-05,6.440800643758848e-05
-2.14892588701332e-05,2.8873084374936298e-05,-2.1593402834696462e-06,6.0513473727041855e-05
-1.703873203950934e-05,3.342626951052807e-05,2.385744664934464e-06,5.7476110669085756e-05
-1.552898538648151e-05,5.987939948681742e-05,5.7108650253212545e-08,5.7347344409208745e-05
-1.2700696061074268e-05,8.968337351689115e-05,-2.291988721481175e-06,5.783213782706298e-05
-1.156292637460865e-05,7.805040513630956e-05,-6.145428415038623e-06,6.265783304115757e-05
-2.022949411184527e-05,3.768972237594426e-05,-6.6198199419886805e-06,6.870651850476861e-05
-2.835922896338161e-05,2.584608046163339e-05,5.499783128470881e-06,7.058081246213987e-05
-2.4707991542527452e-05,4.214564251014963e-05,1.4082887901167851e-05,6.990040856180713e-05
-2.1135843780939467e-05,5.334113666322082e-05,5.028377472626744e-06,6.618613406317309e-05
-1.9897708625649102e-05,5.637280992232263e-05,-1.3264804692880716e-05,6.13670126767829e-05
-2.000469248741865e-05,6.017327541485429e-05,-2.3822929506422952e-05,5.582799349213019e-05
-2.1811198166687973e-05,7.722597365500405e-05,-1.8496493794373237e-05,5.0846476369770244e-05
-2.1866444512852468e-05,9.903307363856584e-05,-1.0529815881454851e-05,4.919526691082865e-05
-2.408961699984502e-05,0.00010609649325488135,-1.0007835044234525e-05,4.9466645577922463e-05
-2.907999441958964e-05,9.101087198359892e-05,-1.5407205864903517e-05,4.810922473552637e-05
-3.1476385629503056e-05,6.799709080951288e-05,-1.9877683371305466e-05,4.6607921831309795e-05
-2.9936731152702123e-05,4.8335277824662626e-05,-1.8364084098720923e-05,4.767239443026483e-05
-2.9870536309317686e-05,3.11093644995708e-05,-1.4029555131855886e-05,5.035713911638595e-05
-2.9218757845228538e-05,6.141341145848855e-06,-1.1592887858569156e-05,5.193292236072011e-05
-2.4887402105377987e-05,-3.957514127250761e-05,-1.1972319043707103e-05,5.270642941468395e-05
-2.0131388737354428e-05,-0.0001010029372991994,-1.1584485946514178e-05,5.1948605687357485e-05
-1.6556636182940565e-05,-0.0001430601696483791,-1.0416581972094718e-05,4.861841443926096e-05
-1.3974505236546975e-05,-0.00014045252464711666,-1.425004029442789e-05,4.367481960798614e-05
-1.4052940969122574e-05,-0.00010725769243435934,-2.232130827906076e-05,4.1041912481887266e-05
-1.5515122868237086e-05,-6.092793046263978e-05,-2.6169722332269885e-05,4.1457176848780364e-05
-1.4932360500097275e-05,-1.2112854165025055e-05,-2.2622205506195314e-05,4.280867142369971e-05
-1.4142241525405552e-05,3.10722753056325e-05,-1.7755895896698348e-05,4.681730570155196e-05
-1.619380054762587e-05,6.170774577185512e-05,-1.4752024981135037e-05,5.16915024491027e-05
-1.922068440762814e-05,8.034447091631591e-05,-1.0201611985394266e-05,5.35384206159506e-05
-1.9155242625856772e-05,8.402380626648664e-05,-5.802323357784189e-06,5.435470666270703e-05
-1.7343767467536964e-05,7.068543345667422e-05,-5.360352588468231e-06,5.849731314810924e-05
-1.9423154299147427e-05,5.4112540965434164e-05,-1.0371543794462923e-05,6.145304359961301e-05
-2.3004316972219385e-05,5.906800288357772e-05,-1.5123537195904646e-05,6.141925405245274e-05
-2.3851596779422835e-05,8.265221549663693e-05,-1.6202589904423803e-05,6.365308217937127e-05
-2.4327800929313526e-05,9.491612581769004e-05,-1.766727291396819e-05,6.335300713544711e-05
-2.8690401450148784e-05,9.038954158313572e-05,-1.678476473898627e-05,5.830275040352717e-05
-3.567322710296139e-05,8.633838297100738e-05,-8.968654583441094e-06,5.674079875461757e-05
-3.893048778991215e-05,9.184388909488916e-05,8.815569003672863e-07,5.753008372266777e-05
-3.5627937904791906e-05,9.426934411749244e-05,2.2286531020654365e-06,5.6613866036059335e-05
-3.1077099265530705e-05,4.954026735504158e-05,-2.330873712708126e-06,5.341461655916646e-05
-2.868069350370206e-05,-4.37876078649424e-05,-6.544406915054424e-06,5.250059621175751e-05
-2.6233081371174194e-05,-0.00011593045201152563,-3.53234486283327e-06,5.6840366596588865e-05
-2.3720609533484094e-05,-0.00011938498937524855,1.1511254342622124e-05,6.20250211795792e-05
-2.0738592866109684e-05,-7.588159496663138e-05,2.737174872891046e-05,6.399891572073102e-05
-1.7213893443113193e-05,-3.288439256721176e-05,2.5193732653860934e-05,6.421306170523167e-05
-1.5695140973548405e-05,-1.3896821656089742e-05,3.80086703444249e-06,6.542998016811907e-05
-1.644140502321534e-05,-9.083984878088813e-06,-1.8021100913756527e-05,6.470506195910275e-05
-1.5951542081893422e-05,-6.606080205528997e-06,-2.52110548899509e-05,6.222907541086897e-05
-1.664531373535283e-05,-3.2478690172865754e-06,-2.1164914869586937e-05,6.152992864372209e-05
-2.0473402400966734e-05,7.243721483973786e-06,-1.7039184967870824e-05,6.295263301581144e-05
-2.2367315978044644e-05,3.407171607250348e-05,-1.6742465959396213e-05,6.425079482141882e-05
-1.9637291188701056e-05,6.735633360221982e-05,-1.660923044255469e-05,6.386589666362852e-05
-1.7447315258323215e-05,8.210185478674248e-05,-1.3983466487843543e-05,5.9767149650724605e-05
-2.238517663499806e-05,7.381788600469008e-05,-1.762507963576354e-05,5.3357696742750704e-05
-3.302896220702678e-05,5.522669744095765e-05,-2.7208470783079974e-05,4.92249419039581e-05
-3.942418334190734e-05,4.203976641292684e-05,-2.6896730560110882e-05,5.0777689466485754e-05
-3.619716517277993e-05,4.8007255827542394e-05,-1.560770942887757e-05,5.173719546291977e-05
-2.807324199238792e-05,7.178316445788369e-05,-5.982944458082784e-06,4.656818418879993e-05
-2.1443836885737255e-05,7.966576959006488e-05,-2.3504933324147714e-06,3.894269320880994e-05
-1.974990482267458e-05,5.121071808389388e-05,-4.071956027473789e-06,3.396687679924071e-05
-2.0128925825702026e-05,1.1191004887223244e-05,-1.0695029232010711e-05,3.771900082938373e-05
-1.934469401021488e-05,-1.3052072063146625e-05,-1.5562649423372932e-05,4.5568747736979276e-05
-2.1326772184693255e-05,-4.4271046135690995e-06,-1.541498386359308e-05,5.082600182504393e-05
-2.5705025109346025e-05,3.576766903279349e-05,-1.3538218809117097e-05,5.06605974806007e-05
-2.9381662898231298e-05,8.802232332527637e-05,-9.923587640514597e-06,4.9254776968155056e-05
-3.2580093829892576e-05,0.00012771826004609466,-8.332386641995981e-06,5.200233499635942e-05
-3.362900679348968e-05,0.00014467854634858668,-9.118797606788576e-06,5.502570274984464e-05
-3.11313197016716e-05,0.0001622705312911421,-1.143165718531236e-05,5.696653897757642e-05
-2.6666963094612584e-05,0.00018719059880822897,-1.4013009604241233e-05,5.853546826983802e-05
-2.668099114089273e-05,0.0001898088667076081,-1.6942303773248568e-05,5.967573815723881e-05
-3.0441256967606023e-05,0.00011818800703622401,-2.2954644009587355e-05,5.834401963511482e-05
-3.4371223591733724e-05,-1.1190984878339805e-05,-3.1072773708729073e-05,5.46729497727938e-05
-3.516811557346955e-05,-0.00010831318650161847,-3.554659997462295e-05,5.2023271564394236e-05
-3.327910235384479e-05,-0.0001299935538554564,-3.3970271033467725e-05,5.258502278593369e-05
-3.1423351174453273e-05,-0.00012304718256928027,-2.9274886401253752e-05,5.5917487770784646e-05
-3.1121733627514914e-05,-0.00013931874127592891,-2.5660421670181677e-05,6.132024282123893e-05
-3.324940917082131e-05,-0.00016617013898212463,-2.47449006565148e-05,6.402677536243573e-05
-3.6318975617177784e-05,-0.00016290092025883496,-1.9395723938941956e-05,6.301175017142668e-05
-3.897897477145307e-05,-0.00011916201037820429,-2.8502252007456264e-06,6.066296191420406e-05
-3.857346382574178e-05,-5.913240966037847e-05,1.843428071879316e-05,5.912858250667341e-05
-3.231156006222591e-05,-6.5598483161011245e-06,3.17843041557353e-05,6.12540461588651e-05
-2.6420266294735484e-05,2.232300175819546e-05,3.3109277865150943e-05,6.534869316965342e-05
-2.5950101189664565e-05,2.6787218303070404e-05,1.9686092855408788e-05,6.661791849182919e-05
-2.5876046493067406e-05,1.633857755223289e-05,-2.3033075535749958e-07,6.426697655115277e-05
-2.4154711354640312e-05,6.645738721999805e-06,-1.1329936569381971e-05,6.403608131222427e-05
-2.325361128896475e-05,7.704960808041506e-06,-1.0233447028440423e-05,6.480977026512846e-05
-2.7721198421204463e-05,1.070181042450713e-05,-6.157549250929151e-06,6.219135684659705e-05
-2.8610382287297398e-05,7.670771083212458e-06,-2.8972192467335844e-06,5.781366417068057e-05
-2.5719840778037906e-05,-4.6140456788634765e-07,-3.356666866238811e-06,5.482378401211463e-05
-2.4003753424040042e-05,-7.82246843300527e-06,-6.5070344135165215e-06,5.4997515690047294e-05
-2.4516277335351333e-05,2.0472632513701683e-06,-6.117189968790626e-06,5.6098833738360554e-05
-2.385036896157544e-05,2.8042515623383224e-05,-3.023118551936932e-06,5.921207048231736e-05
-2.105910243699327e-05,4.786906356457621e-05,2.2188030470715603e-06,6.701027450617403e-05
-2.1250358258839697e-05,5.432977923192084e-05,-4.793955099557934e-07,7.201813423307613e-05
-1.7756765373633243e-05,6.406022293958813e-05,-7.098621608747635e-06,7.300879951799288e-05
-1.3177488654037006e-05,8.616579725639895e-05,-1.0095341167470906e-05,7.052052387734875e-05
-1.263846115762135e-05,0.00011116063251392916,-1.1070559594372753e-05,6.472045788541436e-05
-1.673331826168578e-05,0.00011349172564223409,-8.882746442395728e-06,6.153828144306317e-05
-2.189042788813822e-05,8.759051706874743e-05,-6.676885277556721e-06,6.53253955533728e-05
-2.6277983124600723e-05,5.506546585820615e-05,-4.134666141908383e-06,7.13870394974947e-05
-3.240634032408707e-05,3.526476211845875e-05,-1.057750296240556e-06,7.318328425753862e-05
-4.096252450835891e-05,2.4308492356794886e-05,3.9169455590126745e-07,7.128209836082533e-05
-4.672881914302707e-05,1.436011280020466e-05,-2.9834113774995785e-06,6.965699139982462e-05
-4.586011709761806e-05,1.3342111060410389e-06,-7.917294169601519e-06,6.94378322805278e-05
-3.859643402392976e-05,-1.5460431313840672e-05,-7.317729341593804e-06,6.995342118898407e-05
-2.6271469323546626e-05,-2.4762486646068282e-05,-7.608066709963168e-08,6.945822678972036e-05
-1.5965903003234416e-05,-2.2879166863276623e-05,3.268973841841216e-06,6.927458889549598e-05
-1.5517329302383587e-05,-2.09644185815705e-05,-1.461971123717376e-06,6.916614074725658e-05
-2.2053423890611157e-05,-1.9562728994060308e-05,-7.5099296736880206e-06,6.63404498482123e-05
-2.5246201403206214e-05,3.6097476368013304e-06,-1.3779408618574962e-05,6.362351268762723e-05
-2.4379889509873465e-05,4.560958768706769e-05,-2.1668833142030053e-05,6.256030610529706e-05
-2.7121344828628935e-05,7.80796108301729e-05,-2.6256049750372767e-05,6.230737926671281e-05
-3.473480683169328e-05,7.956708577694371e-05,-2.736785972956568e-05,6.193621811689809e-05
-3.4539705666247755e-05,5.497700840351172e-05,-3.0249806513893418e-05,6.338884122669697e-05
-2.645529093570076e-05,3.6591882235370576e-05,-3.356453817104921e-05,6.101556937210262e-05
-1.9436163711361587e-05,3.781182749662548e-05,-3.567064050002955e-05,5.4180840379558504e-05
-1.7390240827808157e-05,4.946425906382501e-05,-3.0365057682502083e-05,4.930263457936235e-05
-2.0556266463245265e-05,6.706253770971671e-05,-1.8017661204794422e-05,4.470419662538916e-05
-2.6127687306143343e-05,7.699584966758266e-05,-7.114826530596474e-06,4.10456741519738e-05
-3.039427610929124e-05,8.65959154907614e-05,-6.613306595681934e-07,4.163170524407178e-05
-3.267319698352367e-05,0.0001083822498912923,7.008868010416336e-07,4.536343112704344e-05
-3.1498391763307154e-05,0.00013006421795580536,-7.762429845570296e-07,4.8617534048389643e-05
-2.3661446903133765e-05,0.00012597197201102972,-7.870050467317924e-06,4.829731915378943e-05
-1.8265836843056604e-05,9.019419667311013e-05,-1.6348654753528535e-05,4.897475446341559e-05
-1.904566670418717e-05,5.140298526384868e-05,-1.5965801139827818e-05,5.019674790673889e-05
-1.9029896066058427e-05,4.826915028388612e-05,-1.0230897714791354e-05,5.1481343689374626e-05
-1.6716488971724175e-05,7.442798232659698e-05,-8.501836418872699e-06,5.552572838496417e-05
-1.798891207727138e-05,7.178221130743623e-05,-1.0279560228809714e-05,5.9747973864432424e-05
-2.1707457563024946e-05,9.05514298210619e-07,-8.792844710114878e-06,6.062967804609798e-05
-2.2498221369460225e-05,-0.00010020296758739278,-7.6189467108633835e-06,6.10209972364828e-05
-2.3011569282971323e-05,-0.00014398674829863012,-1.0502971235837322e-05,6.395347008947283e-05
-2.7044930902775377e-05,-9.859261626843363e-05,-1.5053145034471527e-05,6.945171480765566e-05
-3.300289608887397e-05,-2.5226290745195e-05,-1.7505124560557306e-05,7.350619853241369e-05
-3.780748738790862e-05,1.1680536772473715e-05,-1.6814186892588623e-05,7.2864095272962e-05
-3.789870606851764e-05,9.472620149608701e-06,-1.5015592907730024e-05,6.826096796430647e-05
-3.345592267578468e-05,-1.2765433893946465e-05,-1.3923812730354257e-05,6.266459968173876e-05
-2.9580260161310434e-05,-3.6708643165184185e-05,-1.164067998615792e-05,6.0011589084751904e-05
-2.8576718250405975e-05,-4.323109533288516e-05,-1.3092832887195982e-05,5.724032598664053e-05
-3.228208879590966e-05,-2.5255147193092853e-05,-1.785057975212112e-05,5.5187265388667583e-05
-3.560873301466927e-05,-7.025411832728423e-06,-1.680470995779615e-05,5.369725840864703e-05
-3.470370938885026e-05,2.0730438166083331e-07,-1.0118541467818432e-05,5.601625525741838e-05
-3.612669024732895e-05,6.5925755734497216e-06,-2.162611707490214e-07,6.031994053046219e-05
-3.824022496701218e-05,1.2069092008459847e-05,8.576290383643936e-06,6.123811181169003e-05
-3.613250009948388e-05,8.094633813016117e-06,1.3397743714449462e-05,5.968267214484513e-05
-3.3454787626396865e-05,-6.355096957122441e-06,1.0054710401163902e-05,6.279685476329178e-05
-3.188784830854274e-05,-2.0872077584499493e-05,-5.974985128887056e-07,6.736147770425305e-05
-2.928432331827935e-05,-2.5826821001828648e-05,-1.1026570064132102e-05,6.628388655371964e-05
-2.653291630849708e-05,-1.7071040929295123e-05,-1.9937060642405413e-05,6.535863212775439e-05
-2.505954762455076e-05,-5.46022602065932e-06,-2.7080362997367047e-05,6.57455311738886e-05
-2.4628257961012423e-05,4.495448592933826e-06,-3.0225135560613126e-05,6.383314757840708e-05
-2.725529884628486e-05,1.9508972400217317e-05,-2.814556864905171e-05,6.091728573665023e-05
-3.232475501135923e-05,3.3994951081695035e-05,-2.3227739802678116e-05,5.975944804958999e-05
-3.527893204591237e-05,4.3297986849211156e-05,-1.8702288798522204e-05,5.9266225434839725e-05
-3.374174775672145e-05,5.985654206597246e-05,-1.6931022400967777e-05,5.994781167828478e-05
-3.19188620778732e-05,8.820458606351167e-05,-1.6571630112593994e-05,6.001992369419895e-05
-3.2384417863795534e-05,0.00010706116154324263,-1.260231601918349e-05,5.7907684094971046e-05
-3.355907756485976e-05,0.00010434242722112685,-1.8606061757964198e-06,5.87428585276939e-05
-3.2532159821130335e-05,9.486831550020725e-05,1.2378706742310897e-05,6.369107723003253e-05
-2.6915226044366136e-05,8.837900531943887e-05,2.1581701730610803e-05,6.854450475657359e-05
-2.0266590581741184e-05,6.675819167867303e-05,2.312751894351095e-05,6.718686927342787e-05
-1.6203635823330842e-05,5.191785930946935e-06,1.722148408589419e-05,6.10373608651571e-05
-1.3473730177793186e-05,-8.552920917281881e-05,4.707779680757085e-06,5.8280067605664954e-05
-1.147609236795688e-05,-0.00014560110867023468,-4.4043063098797575e-06,5.7743629440665245e-05
-1.1874486517626792e-05,-0.0001274298847420141,-7.06508990333532e-06,5.7051543990382925e-05
-1.5823317880858667e-05,-5.02101938764099e-05,-8.844303010846488e-06,5.484848952619359e-05
-2.3136037270887755e-05,3.352146450197324e-05,-9.86679060588358e-06,5.2970415708841756e-05
-2.7236304958933033e-05,8.225570491049439e-05,-9.304201739723794e-06,5.2782157581532374e-05
-2.7158470402355306e-05,9.081380267161876e-05,-6.568856861122185e-06,4.862480636802502e-05
-2.5002702386700548e-05,9.318286902271211e-05,-7.315297807508614e-06,4.1391227568965405e-05
-2.099866651406046e-05,0.0001278581767110154,-1.2009153579128906e-05,4.050342249684036e-05
-1.853754474723246e-05,0.00017566794122103602,-1.5313782569137402e-05,4.666851964429952e-05
-1.9757642803597264e-05,0.00020101090194657445,-1.706700277281925e-05,5.0813388952519745e-05
-2.4712457161513157e-05,0.0002043502317974344,-1.800239806470927e-05,5.039495954406448e-05
-2.7062775188824162e-05,0.00017725370707921684,-1.476669331168523e-05,5.218324440647848e-05
-2.367004162806552e-05,0.00012858824629802257,-8.524255463271402e-06,6.172528810566291e-05
-1.9416786017245613e-05,7.378195005003363e-05,-4.267179519956699e-06,7.123951218090951e-05
-2.060136648651678e-05,2.6682111638365313e-05,-5.628293365589343e-06,7.054805610096082e-05
-2.89837880700361e-05,2.122800879078568e-06,-1.4811546861892566e-05,6.221381045179442e-05
-3.897081478498876e-05,-4.427534804563038e-06,-2.6209103452856652e-05,5.3359774028649554e-05
-4.2685311200330034e-05,-4.756642738357186e-06,-2.8263208150747232e-05,4.920647916151211e-05
-3.776976154767908e-05,-1.0134585863852408e-05,-1.7436041162000038e-05,5.2392901125131175e-05
-2.987760308315046e-05,-1.7282733097090386e-05,-4.869150416197954e-06,5.812697054352611e-05
-2.6009116481873207e-05,-2.4921268050093204e-05,2.0004854377475567e-06,6.12896474194713e-05
-2.650119313329924e-05,-2.9766802981612273e-05,4.588109277392505e-06,6.519097951240838e-05
-2.622539432195481e-05,-2.7299291105009615e-05,5.035821232013404e-06,6.787986058043316e-05
-2.317002508789301e-05,-1.4760929843760096e-05,-1.9979568151029525e-06,6.659118662355468e-05
-1.9896762751159258e-05,8.201170203392394e-06,-1.5209958291961811e-05,6.348166789393872e-05
-1.8508804714656435e-05,3.79115117539186e-05,-2.1290796212269925e-05,6.06588255323004e-05
-1.7039694284903817e-05,5.8373734646011144e-05,-1.7139182091341354e-05,5.879421951249242e-05
-1.4761206330149435e-05,6.237866909941658e-05,-1.0670539268176071e-05,5.7756362366490066e-05
-1.4241384633351117e-05,6.539065361721441e-05,-5.0297567213419825e-06,5.4240445024333894e-05
-1.7970456610783003e-05,6.586360541405156e-05,-4.394400093588047e-06,4.770393206854351e-05
-2.3859112843638286e-05,4.757777787744999e-05,-7.797190846758895e-06,4.424364669830538e-05
-2.942866376542952e-05,2.4346762074856088e-05,-1.0772647328849416e-05,4.624193752533756e-05
-3.4277865779586136e-05,1.4123811524768826e-05,-1.220104968524538e-05,4.7593821363989264e-05
-3.53856994479429e-05,6.810372269683285e-06,-1.5581497791572474e-05,4.435022492543794e-05
-3.510774331516586e-05,-9.545541615807451e-06,-2.1276075131027028e-05,4.271543730283156e-05
-3.587585160857998e-05,-3.0723971576662734e-05,-2.495740045560524e-05,4.521779192145914e-05
-3.466328780632466e-05,-5.3537711210083216e-05,-2.9088181690895e-05,5.067565871286206e-05
-3.202112566214055e-05,-7.011709385551512e-05,-2.6220677682431415e-05,5.370479993871413e-05
-2.9535265639424324e-05,-6.3769803091418e-05,-1.4651847777713556e-05,5.3519441280514e-05
-2.8394782930263318e-05,-3.7414902180898935e-05,-3.3276462545472896e-06,5.4680211178492755e-05
-2.8208325602463447e-05,-8.51737058837898e-06,-1.057466533893603e-06,5.3451574785867706e-05
-2.780433169391472e-05,8.097088539216202e-06,-3.0045866878936067e-06,4.9907637730939314e-05
-2.6433033781358972e-05,1.9103437807643786e-05,-3.389467337910901e-06,5.018230513087474e-05
-2.564034002716653e-05,3.446408663876355e-05,-8.592463927925564e-06,5.3762636525789276e-05
-2.7167774533154443e-05,5.410392623161897e-05,-1.7571861462784e-05,5.722225978388451e-05
-2.850687815225683e-05,6.583225331269205e-05,-2.0884124751319177e-05,5.9284051530994475e-05
-2.759259041340556e-05,6.319163367152214e-05,-1.5064445506141055e-05,6.0148162447148934e-05
