-2.3584740119986236e-05,-2.149165084119886e-05,-7.268718036357313e-06,4.320995503803715e-05
-2.6252815587213263e-05,-1.2550786777865142e-05,-7.417189408442937e-06,4.0473416447639465e-05
-2.9580209229607135e-05,-3.74397131963633e-07,-1.1940156582568306e-05,4.295144753996283e-05
-2.9194521630415693e-05,1.5176687156781554e-05,-1.5123199773370288e-05,4.8252193664666265e-05
-2.1321684471331537e-05,3.1425777706317604e-05,-1.32158575070207e-05,5.411085658124648e-05
-1.7480002497904934e-05,3.729519448825158e-05,-1.0786760867631529e-05,5.0855618610512465e-05
-2.1547815777012147e-05,2.644814048835542e-05,-1.089945999410702e-05,4.364574851933867e-05
-2.539620800234843e-05,3.6703636396850925e-06,-1.2997013982385397e-05,4.217799141770229e-05
-2.9445158361340873e-05,-1.6378435248043388e-05,-1.526541745988652e-05,4.6802026190562174e-05
-3.325128636788577e-05,-2.4038265109993517e-05,-1.5339315723394975e-05,5.029850217397325e-05
-3.279035445302725e-05,-1.692971090960782e-05,-1.4766433196200524e-05,4.9677146307658404e-05
-2.8394335458870046e-05,-1.0297698054273496e-06,-1.338280981144635e-05,4.8211852117674425e-05
-2.554696584411431e-05,1.6938251064857468e-05,-1.050240643962752e-05,4.7269397327909246e-05
-2.6494224584894255e-05,3.261017627664842e-05,-8.085004992608447e-06,4.961808008374646e-05
-2.9725517379119992e-05,4.684874875238165e-05,-9.388018042955082e-06,5.3818315791431814e-05
-3.2462347007822245e-05,6.31000948487781e-05,-1.3085579666949343e-05,5.682871051249094e-05
-3.2417854527011514e-05,8.052987686824054e-05,-1.3998635949974414e-05,5.802478699479252e-05
-2.989000677189324e-05,9.121886250795797e-05,-7.766903763695154e-06,5.8968933444703e-05
-2.9515214919229038e-05,8.42073859530501e-05,1.8089248214891995e-06,6.156096060294658e-05
-3.144872607663274e-05,6.473856046795845e-05,5.1437559704936575e-06,6.398003461072221e-05
-3.272086178185418e-05,4.520158108789474e-05,1.074880287887936e-06,6.303348345682025e-05
-3.342995114508085e-05,3.438062412897125e-05,-5.3197013585304376e-06,5.928667451371439e-05
-3.345007644384168e-05,3.37649580615107e-05,-1.1414262189646251e-05,5.5099138990044594e-05
-2.7535117624211125e-05,4.7413766878889874e-05,-1.4132680007605813e-05,5.6452576245646924e-05
-1.968203105207067e-05,6.83869220665656e-05,-7.988546713022515e-06,6.627825496252626e-05
-1.584577330504544e-05,8.802324009593576e-05,3.7294707908586133e-06,7.672504580114037e-05
-1.3229109754320234e-05,9.379823313793167e-05,7.093413387337932e-06,8.199542935471982e-05
-1.12483858174528e-05,7.049761188682169e-05,3.519281108310679e-06,7.98739492893219e-05
-9.555101314617787e-06,3.862720768665895e-05,-3.6944425119145308e-06,7.61893461458385e-05
-1.118562704505166e-05,1.9018818420590833e-05,-8.25480674393475e-06,7.392543921014294e-05
-1.3334082723304164e-05,1.1075035217800178e-05,-3.08310654872912e-06,7.329486834350973e-05
-1.1610363799263723e-05,2.5670013201306574e-05,-1.0273527095705504e-06,7.472792640328407e-05
-1.1673406334011815e-05,6.187511462485418e-05,-3.955484316975344e-06,7.357104914262891e-05
-1.6491605492774397e-05,8.612469537183642e-05,-5.647942089126445e-06,7.319062569877133e-05
-1.9367858840269037e-05,7.767014903947711e-05,-6.2588846958533395e-06,7.506431575166062e-05
-1.4250175809138454e-05,4.558898217510432e-05,-9.45458759815665e-06,8.065516885835677e-05
-7.790315066813491e-06,4.0442082536173984e-06,-1.4247494618757628e-05,8.719760808162391e-05
-7.343457582464907e-06,-3.2231368095381185e-05,-1.79738399310736e-05,8.866052667144686e-05
-1.338409219897585e-05,-5.5977881856961176e-05,-1.863542274804786e-05,8.250107930507511e-05
-2.2014430214767344e-05,-6.124395440565422e-05,-1.9209004676667973e-05,7.585748971905559e-05
-2.857633626263123e-05,-5.253795097814873e-05,-2.3802738724043593e-05,7.119985821191221e-05
-3.204747918061912e-05,-4.258159242453985e-05,-2.9978906241012737e-05,6.694324110867456e-05
-3.218281563022174e-05,-3.565743827493861e-05,-3.0306517146527767e-05,6.287237192736939e-05
-2.8305419618845917e-05,-2.7826932637253776e-05,-1.996725950448308e-05,6.116254371590912e-05
-2.3353175492957234e-05,-1.6062704162322916e-05,-6.946235771465581e-06,6.116920849308372e-05
-2.2447866285801865e-05,-5.757443432230502e-06,-1.569395067235746e-06,5.9158723161090165e-05
-2.5691657356219366e-05,9.323439940089884e-07,-3.6892149637424154e-06,5.583278107224032e-05
-3.073402331210673e-05,8.628299838164821e-06,-6.296930678217905e-06,5.4070107580628246e-05
-3.1985829991754144e-05,1.4622066373704001e-05,-8.145058018271811e-06,5.491783667821437e-05
-2.7311289159115404e-05,1.5623980289092287e-05,-1.0738446690083947e-05,5.4941097914706916e-05
-2.4124277842929587e-05,1.8224909581476822e-05,-1.5598790923831984e-05,5.394379695644602e-05
-2.5927587557816878e-05,2.5573555831215344e-05,-1.98899615497794e-05,5.503313150256872e-05
-2.9022585295024328e-05,2.565973591117654e-05,-2.4776707505225204e-05,5.678099478245713e-05
-2.9363895009737462e-05,6.9925549723848235e-06,-2.7698619305738248e-05,5.35756626049988e-05
-2.907060661527794e-05,-1.5587469533784315e-05,-2.422889883746393e-05,5.090528429718688e-05
-3.208503039786592e-05,-1.3719242815568577e-05,-1.6858530216268264e-05,4.995961353415623e-05
-3.337694579386152e-05,1.291410080739297e-05,-1.1705068573064636e-05,4.7960260417312384e-05
-3.0768729629926383e-05,3.571821071091108e-05,-1.3775515071756672e-05,4.649817492463626e-05
-2.6158017135458067e-05,5.118143235449679e-05,-1.6137071725097485e-05,4.759546573041007e-05
-2.451773252687417e-05,6.430785288102925e-05,-1.2668644558289088e-05,4.409001121530309e-05
-2.8012927941745147e-05,6.561602640431374e-05,-8.936403901316226e-06,4.1638570110080764e-05
-3.0326713385875337e-05,5.654952474287711e-05,-9.789247997105122e-06,4.5891731133451685e-05
-2.909949944296386e-05,5.63621251785662e-05,-9.815962584980298e-06,5.036663424107246e-05
-2.5031455152202398e-05,6.75008341204375e-05,-9.525181667413563e-06,4.964884647051804e-05
-2.2219908714760095e-05,8.15194653114304e-05,-1.0532858141232282e-05,4.637442543753423e-05
-2.1656356693711132e-05,8.588685159338638e-05,-1.3762952221441083e-05,4.746267950395122e-05
-2.2612895918427967e-05,7.304464816115797e-05,-1.847446219471749e-05,5.010494714952074e-05
-2.3368902475340292e-05,5.602023520623334e-05,-1.8610911865835078e-05,5.1822240493493155e-05
-2.5631119569879957e-05,4.634951619664207e-05,-1.585323661856819e-05,5.402372335083783e-05
-3.091867620241828e-05,3.921356983482838e-05,-1.3947136721981224e-05,5.670922473655082e-05
-3.314246714580804e-05,3.414444290683605e-05,-1.2391783457132988e-05,5.7681871112436056e-05
-3.127558738924563e-05,4.043571243528277e-05,-1.0947042937914375e-05,5.747757313656621e-05
-3.03966662613675e-05,5.496227095136419e-05,-1.0741735422925558e-05,5.6437966122757643e-05
-3.240206933696754e-05,6.65296392980963e-05,-1.2061525922035798e-05,5.613377652480267e-05
-3.1730509363114834e-05,6.723656406393275e-05,-1.1312927199469414e-05,5.624893310596235e-05
-2.7712843802873977e-05,5.991075886413455e-05,-4.863677077082684e-06,5.415097621153109e-05
-2.458095332258381e-05,5.0357211875962093e-05,1.3387856370172813e-06,5.261868500383571e-05
-2.383925675530918e-05,4.4468393753049895e-05,4.213219199300511e-06,5.398449138738215e-05
-2.236644104414154e-05,3.257094067521393e-05,3.984639533882728e-06,5.709286779165268e-05
-2.1714489776059054e-05,-5.820440492243506e-06,-8.853722306412237e-07,5.965143645880744e-05
-2.6898203941527754e-05,-5.737582978326827e-05,-6.72181749905576e-06,5.985424286336638e-05
-3.0075269023654982e-05,-6.566139200003818e-05,-5.035513822804205e-06,6.027852214174345e-05
-2.694484282983467e-05,-2.860773201973643e-05,3.5415266097515996e-07,5.8008383348351344e-05
-2.0964222130714916e-05,-7.916021786513738e-06,2.3538841560366563e-06,5.6786579079926014e-05
-1.5490499208681285e-05,-1.9795921616605483e-05,-5.020190201321384e-07,5.6009506806731224e-05
-1.9112707377644256e-05,-3.696570638567209e-05,-6.347665930661606e-06,5.0936152547365054e-05
-2.6751280529424548e-05,-3.226387343602255e-05,-6.968144134589238e-06,4.7079785872483626e-05
-3.0638948373962194e-05,-1.248212015525496e-06,-2.817006816258072e-06,4.968727080267854e-05
-2.8901893529109657e-05,2.918690188380424e-05,3.5146065329172416e-06,5.398114080890082e-05
-2.464410317770671e-05,3.1439321901416406e-05,7.061517862894107e-06,5.62556269869674e-05
-2.3224502001539804e-05,1.2857944057032e-05,2.1288738025759812e-06,5.675912325386889e-05
-2.253850470879115e-05,-3.472988225894369e-07,-8.62432898429688e-06,5.705743751605041e-05
-2.256803600175772e-05,-2.158649067496299e-06,-1.5518160580541007e-05,5.950792183284648e-05
-2.1797170120407827e-05,2.7561886781768408e-06,-1.5517862266278826e-05,6.253922765608877e-05
-2.0290077372919768e-05,8.499214345647488e-06,-1.0343375834054314e-05,6.455944094341248e-05
-1.8987684597959742e-05,1.6423924535047263e-05,-2.2034996618458536e-06,6.582582864211872e-05
-1.931326733028982e-05,2.5382252715644427e-05,3.609334044085699e-06,6.688999565085396e-05
-1.9644801795948297e-05,3.583583020372316e-05,1.4191806485541747e-06,6.693766044918448e-05
-2.0034049157402478e-05,4.548679862637073e-05,-6.801717972848564e-06,6.454853428294882e-05
-2.380615296715405e-05,5.29252429259941e-05,-1.2651358701987192e-05,5.9462367062224075e-05
-2.6891588277067058e-05,5.427303767646663e-05,-1.2232344488438684e-05,5.487472299137153e-05
-2.4093036699923687e-05,4.4195308873895556e-05,-8.886556315701455e-06,5.218220394453965e-05
-2.104861050611362e-05,2.6629089916241355e-05,-8.489782885590103e-06,5.379651702241972e-05
-2.0718041923828423e-05,5.7354377531737555e-06,-1.177068679680815e-05,5.6414246500935405e-05
-1.9673509086715057e-05,-1.0974171345878858e-05,-1.3667578059539665e-05,5.552896254812367e-05
-1.838423850131221e-05,-1.4955162441765424e-05,-9.852244147623423e-06,5.5105669162003323e-05
-1.6752921510487795e-05,-5.89263072470203e-06,-4.293900929042138e-06,5.979180059512146e-05
-1.868787694547791e-05,6.60514797345968e-06,-1.930081225509639e-06,6.346061854856089e-05
-2.2669461031910032e-05,1.3274340744828805e-05,-5.816942575620487e-06,6.315236532827839e-05
-2.3796566892997362e-05,1.1275987162662204e-05,-9.620598575565964e-06,6.500854215119034e-05
-2.4357523216167465e-05,1.2314021660131402e-05,-1.2370339391054586e-05,6.54947361908853e-05
-2.764886630757246e-05,1.3773357750324067e-05,-1.2943851288582664e-05,6.177615432534367e-05
-2.7859241527039558e-05,1.78047084773425e-05,-9.123466952587478e-06,5.9493588196346536e-05
-2.6362078642705455e-05,2.4017714167712256e-05,-4.845482180826366e-06,6.0671987739624456e-05
-3.1233510526362807e-05,2.400342964392621e-05,-1.2434766176738776e-06,6.432091322494671e-05
-3.707699943333864e-05,2.088261317112483e-05,8.56127186921185e-08,6.427066546166316e-05
-3.965112045989372e-05,1.8506629203329794e-05,-1.2117905043851351e-06,6.002881491440348e-05
-3.6085733881918713e-05,2.470294748491142e-05,-6.7605942604132e-06,5.723753201891668e-05
-3.0316787160700187e-05,3.891167580150068e-05,-9.795637197385076e-06,5.8731817262014374e-05
-2.7917889383388683e-05,5.035868889535777e-05,-7.15017449692823e-06,6.306236900854856e-05
-2.6983376301359385e-05,5.8046160120284185e-05,-2.0913298612867948e-06,6.609332922380418e-05
-2.6576042728265747e-05,6.514159758808091e-05,1.6777155451563885e-06,6.77136704325676e-05
-2.5639361410867423e-05,6.594401929760352e-05,2.9076281862217e-06,6.7404136643745e-05
-2.3563936338177882e-05,5.734577280236408e-05,-1.672862936175079e-06,6.478254363173619e-05
-2.2287807951215655e-05,4.540447844192386e-05,-1.122183857660275e-05,6.259863585000858e-05
-2.503055839042645e-05,3.6951267247786745e-05,-1.6660691471770406e-05,6.131867849035189e-05
-3.059644586755894e-05,3.082588955294341e-05,-1.6579373550484888e-05,6.2270337366499e-05
-3.437257691984996e-05,2.2093026927905157e-05,-1.800756945158355e-05,6.43695893813856e-05
-3.188011032762006e-05,9.304178092861548e-06,-2.1766158170066774e-05,6.28553461865522e-05
-2.596266131149605e-05,-8.562443554183119e-07,-2.2150936274556443e-05,6.040816515451297e-05
-2.375884105276782e-05,1.8335323375140433e-06,-1.728057577565778e-05,6.089889211580157e-05
-2.7181873520021327e-05,9.376228263136e-06,-9.439325367566198e-06,6.105610373197123e-05
-2.9863196687074378e-05,1.1978289876424242e-05,-4.793488642462762e-06,5.938413232797757e-05
-2.9458136850735173e-05,1.0548851605562959e-05,-6.537886292790063e-06,5.888434679945931e-05
-2.8053431378793903e-05,5.927373422309756e-06,-1.4973430552345235e-05,5.9878580941585824e-05
-2.6839559723157436e-05,9.530097486276645e-06,-2.2780544895795174e-05,5.8258086937712505e-05
-2.4103823307086714e-05,2.0004321413580328e-05,-2.5700890546431765e-05,5.647546277032234e-05
-1.885717938421294e-05,2.3850776415201835e-05,-2.2155290935188532e-05,5.565050742006861e-05
-1.815476207411848e-05,2.0056722860317677e-05,-1.4004303920955863e-05,5.340827192412689e-05
-2.1135601855348796e-05,1.4461385944741778e-05,-9.83688823907869e-06,5.669802339980379e-05
-2.2375641492544673e-05,8.613343197794165e-06,-1.3214014870754909e-05,5.682822302333079e-05
-2.2691243430017494e-05,2.8071899578208104e-06,-1.8231865396955982e-05,5.1241433538962156e-05
-2.0953588318661787e-05,2.519761892472161e-06,-1.8635102605912834e-05,4.7530575102427974e-05
-1.8400614862912335e-05,7.22048480383819e-06,-1.5416500900755636e-05,4.882766370428726e-05
-2.054354627034627e-05,1.288722523895558e-05,-1.4410303265322e-05,5.1913069910369813e-05
-2.602773020043969e-05,2.2686344891553745e-05,-1.850474473030772e-05,5.2773226343560964e-05
-2.9103712222422473e-05,3.66575040970929e-05,-2.2193537006387487e-05,5.331907232175581e-05
-2.836429121089168e-05,5.3696177928941324e-05,-2.2054326109355316e-05,5.5518012231914327e-05
-2.829714139807038e-05,6.775463407393545e-05,-1.8863336663343944e-05,6.0853530158055946e-05
-3.042262869712431e-05,6.745798600604758e-05,-1.3997353562444914e-05,6.565902003785595e-05
-3.232588278478943e-05,5.1657960284501314e-05,-8.685621651238762e-06,6.869405478937551e-05
-3.23498752550222e-05,3.470358933554962e-05,-4.59994680568343e-06,6.907525676069781e-05
-3.125468720099889e-05,2.4577466319897212e-05,-2.098088543789345e-06,6.71872912789695e-05
-2.9302169423317537e-05,1.5948233340168372e-05,-2.7672166424963507e-07,6.338542880257592e-05
-2.6807058020494878e-05,8.543755029677413e-06,2.8127046789450105e-06,6.0555154050234705e-05
-2.3328229872277007e-05,8.047898518270813e-06,5.418595264927717e-06,5.8189350966131315e-05
-1.7884394765133038e-05,1.2995552424399648e-05,7.025415015959879e-06,5.5853932281024754e-05
-1.4218043361324817e-05,1.2845409401052166e-05,7.914121852081735e-06,5.5992917623370886e-05
-1.559470547363162e-05,1.0788993677124381e-05,1.1924889804504346e-06,5.793687887489796e-05
-1.659453846514225e-05,1.9952101865783334e-05,-1.2305599739192985e-05,5.8007881307275966e-05
-1.3338234566617757e-05,3.329927858430892e-05,-2.1078820282127708e-05,5.6141612731153145e-05
-1.2258542483323254e-05,3.847914558718912e-05,-2.308274997631088e-05,5.5373599025188014e-05
-1.5141865333134774e-05,4.215955414110795e-05,-1.9783872630796395e-05,5.597428389592096e-05
-1.929264544742182e-05,4.856479790760204e-05,-1.3334524737729225e-05,5.613998291664757e-05
-1.9549877833924256e-05,5.08313205500599e-05,-1.329073347733356e-05,5.386486373026855e-05
-2.0876910639344715e-05,4.6134955482557416e-05,-1.7157870388473384e-05,5.137564949109219e-05
-2.3540662368759513e-05,3.436063343542628e-05,-2.0329698600107804e-05,5.269607572699897e-05
-2.346234759897925e-05,1.7143594959634356e-05,-1.94807998923352e-05,5.9225996665190905e-05
-2.6754278223961592e-05,1.9734393390535843e-06,-1.6308749763993546e-05,6.15973403910175e-05
-2.7504947865963914e-05,-4.669494956033304e-06,-1.655302730796393e-05,5.6288805353688076e-05
-2.8297390599618666e-05,-1.7641813201407786e-06,-1.955693369382061e-05,5.273811984807253e-05
-3.284093691036105e-05,2.7454805149318418e-06,-2.287876486661844e-05,5.394970503402874e-05
-3.961980473832227e-05,2.0454140212677885e-06,-2.282690184074454e-05,5.802352097816765e-05
-4.518048444879241e-05,-2.893588089136756e-07,-2.0184326785965823e-05,6.029477663105354e-05
-4.623650966095738e-05,2.4585485789430095e-06,-1.432646058674436e-05,5.8000852732220665e-05
-4.3701842514565215e-05,6.379414116963744e-06,-9.309408596891444e-06,5.481009793584235e-05
-3.890998777933419e-05,1.0904229384323116e-05,-9.167449206870515e-06,5.306494495016523e-05
-3.644309617811814e-05,1.9666689695441164e-05,-1.3464873518387321e-05,5.3160165407462046e-05
-3.6079014535062015e-05,2.8169852157589048e-05,-1.6170000890269876e-05,5.593699825112708e-05
-3.599178671720438e-05,3.146588642266579e-05,-1.614658503967803e-05,5.683609197149053e-05
-3.50209629687015e-05,3.230108632124029e-05,-1.7953338101506233e-05,5.4745709348935634e-05
-3.613010630942881e-05,3.345920049468987e-05,-2.0703386326204054e-05,5.2559571486199275e-05
-3.676717824419029e-05,3.32700765284244e-05,-1.9266208255430683e-05,5.1187656936235726e-05
-3.461910455371253e-05,3.467868373263627e-05,-1.437705122953048e-05,5.379007416195236e-05
-3.2209751225309446e-05,4.270176941645332e-05,-1.0144523002963979e-05,5.921678166487254e-05
-2.998269883391913e-05,5.66258022445254e-05,-7.088870461302577e-06,5.996987238177098e-05
-2.8671016480075195e-05,6.759775715181604e-05,-7.228263257275103e-06,5.274921568343416e-05
-2.4818444217089564e-05,7.334198744501919e-05,-1.1910027751582675e-05,4.678339246311225e-05
-1.988165604416281e-05,7.553432806162164e-05,-1.4730216207681224e-05,4.998853546567261e-05
-2.0879884687019512e-05,7.611030741827562e-05,-1.0739779099822044e-05,5.731694182031788e-05
-2.4705084797460586e-05,7.627723243786022e-05,-8.462345249427017e-06,6.031447628629394e-05
-2.4889668566174805e-05,5.966276512481272e-05,-1.2662000699492637e-05,5.855958443135023e-05
-2.4241291612270288e-05,3.4920190955745056e-05,-1.736310514388606e-05,5.426674761110917e-05
-2.7162383048562333e-05,2.0945784854120575e-05,-1.4784433005843312e-05,5.04450399603229e-05
-2.9382570573943667e-05,1.850944317993708e-05,-8.335301572515164e-06,5.1453662308631465e-05
-2.879587009374518e-05,1.827836240408942e-05,-3.625824547270895e-06,5.6220771512016654e-05
-2.680107718333602e-05,8.227157195506152e-06,-5.032032731833169e-06,5.74249352212064e-05
-2.636625140439719e-05,2.471419691119081e-07,-1.0619754903018475e-05,5.632935426547192e-05
-2.8480728360591456e-05,-5.8343612181488425e-06,-1.3781357665720861e-05,5.5942018661880866e-05
-3.3913929655682296e-05,-6.250491423998028e-06,-1.0611444849928375e-05,5.2758878155145794e-05
-3.9443148125428706e-05,2.3636355308553902e-06,-4.542340775515186e-06,4.774074841407128e-05
-3.930482853320427e-05,2.017717451963108e-05,-3.933583684556652e-06,4.6733362978557125e-05
-3.4043325285892934e-05,4.802529656444676e-05,-1.0238861250400078e-05,5.417860302259214e-05
-2.8895310606458224e-05,7.766307680867612e-05,-1.3000058970646933e-05,6.284657138166949e-05
-2.9497037758119404e-05,8.475804497720674e-05,-5.961939223197987e-06,6.325062713585794e-05
-3.249549990869127e-05,5.744141526520252e-05,1.0117104665141596e-07,5.854496703250334e-05
-3.166808528476395e-05,1.2673433957388625e-05,-3.836107225652086e-06,5.441811299533583e-05
-2.821667294483632e-05,-2.6779724066727795e-05,-1.2149048416176811e-05,5.191356467548758e-05
-2.6191735742031597e-05,-4.42321652371902e-05,-1.5806155715836212e-05,5.253155541140586e-05
-2.1546107745962217e-05,-4.458463445189409e-05,-1.3866159861208871e-05,5.651349783875048e-05
-1.4112203643890098e-05,-4.1797145968303084e-05,-1.1250948773522396e-05,5.9991922171320766e-05
-9.398441761732101e-06,-3.794301301240921e-05,-1.3159496120351832e-05,6.223560922080651e-05
-1.0386545000073966e-05,-2.742502692854032e-05,-1.4956941413402092e-05,6.266505079111084e-05
-1.2426297871570569e-05,-1.936747503350489e-05,-1.347562010778347e-05,6.029227006365545e-05
-1.535701630928088e-05,-1.70315288414713e-05,-9.471819794271141e-06,5.8351393818156794e-05
-2.0190969735267572e-05,-9.714979569253046e-06,-4.6628574636997655e-06,5.90924100833945e-05
-2.2733769583282992e-05,7.664819349884056e-06,-6.116410531831207e-06,5.969028643448837e-05
-2.262966154376045e-05,2.0208462956361473e-05,-1.4133939657767769e-05,5.56016675545834e-05
-2.2654499844065867e-05,2.416488860035315e-05,-1.881580647022929e-05,5.234897616901435e-05
-2.498912363080308e-05,2.761211544566322e-05,-1.5537567378487438e-05,5.3015184676041827e-05
-2.688681888685096e-05,3.302800178062171e-05,-5.946411420154618e-06,5.4504795116372406e-05
-2.860620770661626e-05,4.005227310699411e-05,2.5373873313583317e-07,5.798745769425295e-05
-2.7557744033401832e-05,4.785197234014049e-05,8.481266604576376e-07,5.886512735742144e-05
-2.155571746698115e-05,5.3355619456851855e-05,1.137016738539387e-06,5.771751966676675e-05
-1.73612788785249e-05,5.781638537882827e-05,-3.9465098780056e-06,6.058353392290883e-05
-1.57013964781072e-05,6.103788473410532e-05,-1.2868245903518982e-05,6.228253914741799e-05
-1.1970606465183664e-05,5.6323231547139585e-05,-1.9595774574554525e-05,6.157481402624398e-05
-8.298540706164204e-06,4.397226439323276e-05,-1.81172727025114e-05,6.203816155903041e-05
-1.1408308637328446e-05,3.661610389826819e-05,-7.91740239947103e-06,6.54761606710963e-05
-1.637959030631464e-05,3.772192576434463e-05,2.2066858491598396e-06,6.73924369039014e-05
-1.572578912600875e-05,3.643930540420115e-05,5.006583251088159e-06,6.630099233007059e-05
-1.4848616046947427e-05,2.6519659513724037e-05,1.2810587577405386e-06,6.444730388466269e-05
-1.7961361663765274e-05,1.4803064914303832e-05,-2.067710283881752e-06,6.5387059294153e-05
-2.172755375795532e-05,9.240110557584558e-06,-2.6133823212148855e-06,6.599312473554164e-05
-2.2739634005120024e-05,1.1422715942899231e-05,-5.791084731754381e-07,6.361274427035823e-05
-2.2440488464781083e-05,1.7644584659137763e-05,2.8514625682873884e-06,6.268639117479324e-05
-2.4353656044695526e-05,2.249200588266831e-05,4.71192743134452e-06,6.450319779105484e-05
-2.719327312661335e-05,2.6256253477185965e-05,3.819830908469157e-06,6.641401705564931e-05
-2.734140980464872e-05,2.9499937227228656e-05,3.7403181067929836e-06,6.484826735686511e-05
-2.5947032554540783e-05,3.72205140592996e-05,5.595022230409086e-06,6.430949724745005e-05
-2.3791501007508487e-05,5.358336784411222e-05,1.1643271136563271e-05,6.660135113634169e-05
-2.4305494662257843e-05,7.581040699733421e-05,1.8132868717657402e-05,7.235730299726129e-05
-2.5924229703377932e-05,9.337479423265904e-05,1.594189780007582e-05,7.512304000556469e-05
-2.9231923690531403e-05,9.429177589481696e-05,5.2526966101140715e-06,7.321614248212427e-05
-3.539819590514526e-05,8.005968265933916e-05,-4.473902208701475e-06,7.369230297626927e-05
-3.5083710827166215e-05,6.258420762605965e-05,-8.910801625461318e-06,7.131974416552112e-05
-2.9647404517163523e-05,4.824563438887708e-05,-1.1100402844022028e-05,6.569711695192382e-05
-2.60576416621916e-05,4.3142514186911285e-05,-1.1413298125262372e-05,6.392073555616662e-05
-2.6660403818823397e-05,4.176326183369383e-05,-1.4728699170518667e-05,6.638166087213904e-05
-2.9570559490821324e-05,3.666722841444425e-05,-1.8845876184059307e-05,6.504815974039957e-05
-3.446345363045111e-05,3.17363410431426e-05,-2.0477262296481058e-05,6.149022374302149e-05
-3.744947025552392e-05,2.5720759367686696e-05,-1.9599210645537823e-05,6.216910696821287e-05
-3.32183699356392e-05,1.83034371730173e-05,-1.9502738723531365e-05,6.305054557742551e-05
-2.6671088562579826e-05,9.334562491858378e-06,-2.1121908503118902e-05,6.557412416441366e-05
-2.3602820874657482e-05,-4.120623088965658e-06,-2.232512088085059e-05,6.777176167815924e-05
-2.4979792215162888e-05,-1.0547535566729493e-05,-2.2831232854514383e-05,6.839779234724119e-05
-2.709142972889822e-05,-6.9699049163318705e-06,-2.313442928425502e-05,6.851914076833054e-05
-2.7597727239481173e-05,-3.333995209686691e-06,-2.0850917280768044e-05,6.783297430956736e-05
-2.6429350327816792e-05,-5.929243343416601e-06,-1.660983070905786e-05,6.248058343771845e-05
-2.522395516280085e-05,-9.999427675211336e-06,-1.630570477573201e-05,5.565036917687394e-05
-2.4395129003096372e-05,-9.808196409721859e-06,-1.8947010175907053e-05,5.3312363888835534e-05
-2.200782546424307e-05,-8.525063094566576e-06,-2.014340498135425e-05,5.668891753884964e-05
-1.9286979295429774e-05,-1.1256765901634935e-05,-1.8565859136288054e-05,5.908458842895925e-05
-1.8166969312005676e-05,-1.318325121246744e-05,-1.6698297258699313e-05,5.510616028914228e-05
-1.658558176131919e-05,-5.369369660002121e-07,-1.4839059076621197e-05,5.14196181029547e-05
-1.4491235560853966e-05,2.4270713765872642e-05,-1.0723275408963673e-05,5.4221756727201864e-05
-1.740238076308742e-05,4.5167220378061756e-05,-6.313627181953052e-06,6.146988744148985e-05
-2.2648233425570652e-05,5.298049654811621e-05,-7.539593752881046e-06,6.424736784538254e-05
-2.0498484445852228e-05,5.0598144298419356e-05,-1.0954593562928494e-05,5.9606580180116e-05
-1.7028172806021757e-05,4.296393308322877e-05,-8.996435099106748e-06,5.238954327069223e-05
-2.007079638133291e-05,3.283782643848099e-05,-9.92548962130968e-07,5.001240424462594e-05
-2.192823012592271e-05,2.7486003091325983e-05,4.376074684842024e-06,5.250729373074137e-05
-1.87585610547103e-05,2.852040961442981e-05,4.786196768691298e-06,5.710797631763853e-05
-2.0668025172199123e-05,2.2348689526552334e-05,1.8233255332233966e-06,5.767420225311071e-05
-2.6548175810603425e-05,-1.2575512755574891e-06,-2.462114025547635e-06,5.476974547491409e-05
-2.612020034575835e-05,-3.312557237222791e-05,-6.513408152386546e-06,5.3924981330055743e-05
-2.2237523808144033e-05,-5.20120702276472e-05,-8.616353625257034e-06,5.6385724747087806e-05
-2.2559999706572853e-05,-4.751230517285876e-05,-7.536937118857168e-06,5.7102279242826626e-05
-2.756572030193638e-05,-2.102391590597108e-05,-7.472349352610763e-06,5.336165850167163e-05
-2.8974414817639627e-05,9.979128662962466e-06,-8.882693691703025e-06,4.9329519242746755e-05
-2.7040165150538087e-05,2.7939129722653888e-05,-1.1419363545428496e-05,4.799125963472761e-05
-2.6513949705986306e-05,3.0958326533436775e-05,-1.3460708032653201e-05,4.9037422286346555e-05
-2.8649805244640447e-05,2.9284028641995974e-05,-1.3779901564703323e-05,4.97172077302821e-05
-3.006595215993002e-05,3.0567232897737995e-05,-1.2978667655261233e-05,5.022627010475844e-05
-2.9316948712221347e-05,4.05797763960436e-05,-1.2014499588985927e-05,5.149681601324119e-05
-2.8058717362000607e-05,5.698115273844451e-05,-1.1549780538189225e-05,5.3103911341167986e-05
-2.7540258088265546e-05,6.672099698334932e-05,-1.1499570064188447e-05,5.622291791951284e-05
-2.9765988074359484e-05,6.026746996212751e-05,-1.005230296868831e-05,5.903150304220617e-05
-3.397911132196896e-05,4.256382453604601e-05,-7.2680045377637725e-06,6.18163394392468e-05
-3.6336499761091545e-05,2.487787787686102e-05,-5.374497050070204e-06,6.441777077270672e-05
-3.445435140747577e-05,1.4126305359241087e-05,-4.29597957918304e-06,6.480810407083482e-05
-3.0377897928701714e-05,8.493797395203728e-06,-4.185352281638188e-06,6.303197733359411e-05
-2.9516399081330746e-05,-1.0969780532832374e-06,-6.588700671272818e-06,6.30849608569406e-05
-3.30272814608179e-05,-1.3315259820956271e-05,-9.162135938822757e-06,6.608930561924353e-05
-3.700883098645136e-05,-2.529023913666606e-05,-1.0263280273647979e-05,6.65867337374948e-05
-3.8794958527432755e-05,-3.303745324956253e-05,-9.624757694837172e-06,6.392846262315288e-05
-3.876054324791767e-05,-2.7791058528237045e-05,-6.087815563660115e-06,5.7418059441260993e-05
-3.650380313047208e-05,-1.3091548680677079e-05,-3.946787728636991e-06,5.0409245886839926e-05
-3.0455992600764148e-05,-4.314856141718337e-06,-1.8838678670363151e-06,5.051366315456107e-05
-2.7203275749343447e-05,1.1151203580084257e-05,-1.882392695051749e-07,5.408258584793657e-05
-2.960108031402342e-05,3.5877030313713476e-05,-2.0593740828189766e-06,5.362887168303132e-05
-3.0198933018255048e-05,5.0762500904966146e-05,-4.094606083526742e-06,5.229152156971395e-05
-2.7979089281870984e-05,6.0914688219781965e-05,-4.8591459744784515e-06,5.4821324738441035e-05
-2.7605559807852842e-05,7.301949517568573e-05,-5.244972271611914e-06,6.128274253569543e-05
-2.722383214859292e-05,8.703839557711035e-05,-5.439194410428172e-06,6.514819688163698e-05
-2.9492255634977482e-05,9.565408254275098e-05,-2.859106416508439e-06,6.553779530804604e-05
-3.0963841709308326e-05,9.870862413663417e-05,-1.1839611602226796e-07,6.473193207057193e-05
-3.227616616641171e-05,0.00010139240475837141,-7.486546564905439e-07,6.385948654497042e-05
-3.3839212846942246e-05,9.197982581099495e-05,-6.882000434416113e-06,6.31612419965677e-05
-3.463305256445892e-05,6.543770723510534e-05,-1.4951650882721879e-05,6.0935417423024774e-05
-3.445167021709494e-05,3.480395025690086e-05,-1.9710663764271885e-05,5.976230386295356e-05
-3.273298352723941e-05,2.0936968212481588e-05,-1.8843391444534063e-05,5.894052446819842e-05
-3.2075007766252384e-05,2.6097097361343913e-05,-1.4053499398869462e-05,5.710208279197104e-05
-2.9952183467685245e-05,3.622229996835813e-05,-8.936532140069176e-06,5.53006975678727e-05
-2.6471423552720807e-05,3.507459405227564e-05,-6.898760148033034e-06,5.309653715812601e-05
-2.4383947675232776e-05,2.0396742911543697e-05,-9.722959475766402e-06,5.225672430242412e-05
-2.459453207848128e-05,6.217244845174719e-06,-1.4737932360731065e-05,5.3803552873432636e-05
-2.214733831351623e-05,-2.559148697400815e-07,-1.8929735233541578e-05,5.661165778292343e-05
-1.92985353351105e-05,-3.011897433680133e-06,-2.3061422325554304e-05,5.913830682402477e-05
-1.9523713490343653e-05,-1.905518274725182e-06,-2.6513353077461943e-05,5.836316631757654e-05
-2.2890617401571944e-05,8.29031523608137e-06,-2.7562815375858918e-05,5.709741890314035e-05
-2.6992682251147926e-05,1.7559412299306132e-05,-2.7158130251336843e-05,5.734976730309427e-05
-2.8465918148867786e-05,1.4633416867582127e-05,-2.432561268506106e-05,5.733871876145713e-05
-2.5789082428673282e-05,1.2070040611433797e-05,-2.4345990823348984e-05,5.995880928821862e-05
-2.6136192900594324e-05,7.5608213592204265e-06,-2.7516711270436645e-05,5.9384135965956375e-05
-3.127191303065047e-05,-1.8190969512943411e-06,-2.4834936994011514e-05,5.434253762359731e-05
-3.1686915463069454e-05,-4.609635197994066e-06,-1.4102993191045243e-05,5.0768707296811044e-05
-2.6794432415044867e-05,3.992500751337502e-06,-2.376761813138728e-06,5.0200786063214764e-05
-2.3674861949984916e-05,1.8329135855310597e-05,5.528415385924745e-06,5.297379902913235e-05
-2.2661874027107842e-05,2.6765941584017128e-05,5.578392574534519e-06,5.567937478190288e-05
-2.0677784050349146e-05,2.7032232537749223e-05,1.9658814380818512e-06,5.743814108427614e-05
-1.6476005839649588e-05,1.984218215511646e-05,-8.841295340289435e-08,5.9163150581298396e-05
-1.1783405170717742e-05,2.5395167540409602e-05,5.063911316938174e-07,6.291860336204991e-05
-8.28427255328279e-06,4.3311174522386864e-05,-6.707543320771947e-07,6.273543840507045e-05
-5.9097133089380804e-06,5.938164395047352e-05,-4.8792685447551776e-06,6.0255915741436183e-05
-4.190330400888342e-06,7.046152313705534e-05,-1.0090278919960838e-05,6.0288813983788714e-05
-4.119682671444025e-06,8.056635124376044e-05,-1.6396917999372818e-05,6.174868030939251e-05
-6.417028998839669e-06,8.457369403913617e-05,-2.121543548128102e-05,6.302619294729084e-05
-1.021087336994242e-05,7.341045420616865e-05,-2.1838623069925234e-05,6.323019624687731e-05
-1.5820942280697636e-05,5.015340866521001e-05,-1.852720743045211e-05,6.19531492702663e-05
-2.083586878143251e-05,3.3223372156498954e-05,-1.513953975518234e-05,6.227618723642081e-05
-2.2847640138934366e-05,3.091032704105601e-05,-1.2905052244605031e-05,6.46514308755286e-05
-2.1431616914924234e-05,2.5277338863816112e-05,-1.5186285963864066e-05,6.52245944365859e-05
-1.9075709133176133e-05,8.40455868456047e-06,-2.0117289750487544e-05,6.354093784466386e-05
-1.7487975128460675e-05,-7.205883775895927e-06,-2.4080078219412826e-05,6.052603930584155e-05
-1.7493701307103038e-05,-1.566332866786979e-05,-2.4919005227275193e-05,5.8412111684447154e-05
-1.8104374248650856e-05,-2.1604095309157856e-05,-2.2289455955615267e-05,5.747724571847357e-05
-1.945049734786153e-05,-1.84710825124057e-05,-1.9479894035612233e-05,5.843856342835352e-05
-1.8315098714083433e-05,-6.3398483689525165e-06,-1.8964894479722716e-05,5.8209738199366257e-05
-1.4010057384439278e-05,5.738269919675076e-06,-1.7851114535005763e-05,5.3914194722892717e-05
-1.2927345778734889e-05,1.2539094313979149e-05,-1.992620855162386e-05,5.135827086633071e-05
-1.3233026038506068e-05,1.672259531915188e-05,-1.8073505998472683e-05,5.1694023568416014e-05
-1.2420585335348733e-05,1.8222704966319725e-05,-1.9401550162001513e-06,5.1917810196755454e-05
-1.3507217772712465e-05,2.498335925338324e-05,1.173628606920829e-05,5.429768134490587e-05
-1.7457712601753883e-05,3.055290289921686e-05,1.3306269465829246e-05,5.508905815077014e-05
-2.2464913854491897e-05,2.359291465836577e-05,8.508906830684282e-06,5.4049854952609167e-05
-2.808567660395056e-05,9.277110621042084e-06,1.4860975738884008e-07,5.1482697017490864e-05
-3.245289917686023e-05,-1.1014250048901886e-05,-7.87912358646281e-06,4.9708516598911956e-05
-3.2526808354305103e-05,-1.9900853658327833e-05,-1.384496226819465e-05,4.761231321026571e-05
-3.3233929570997134e-05,-3.420246912355651e-06,-1.716075712465681e-05,4.5556153054349124e-05
-3.6477715184446424e-05,2.1131061657797545e-05,-1.8886374164139852e-05,4.554993938654661e-05
-4.014603473478928e-05,3.501780520309694e-05,-1.9916846213163808e-05,4.730780347017571e-05
-3.842391379293986e-05,3.385860691196285e-05,-1.9036522644455545e-05,4.9026424676412717e-05
-3.1459963793167844e-05,3.0121815143502317e-05,-1.8036582332570106e-05,5.193479955778457e-05
-2.5814550099312328e-05,3.380456837476231e-05,-1.3393756489676889e-05,5.483186032506637e-05
-2.400830271653831e-05,4.520984657574445e-05,-7.372676918748766e-06,5.30324577994179e-05
-2.5497367460047826e-05,5.1711136620724574e-05,-8.101600542431697e-06,4.697668191511184e-05
-2.6460889785084873e-05,4.393224298837595e-05,-1.4399446627066936e-05,4.403351340442896e-05
-2.6997200620826334e-05,2.9405180612229742e-05,-1.9327479094499722e-05,4.898517727269791e-05
-2.7948573915637098e-05,2.2331862055580132e-05,-1.7617903722566552e-05,5.526766472030431e-05
-2.773647429421544e-05,3.080959140788764e-05,-6.5988683672912885e-06,5.885489008505829e-05
-2.4608933017589152e-05,4.3044758058385924e-05,9.146110642177518e-06,5.965379023109563e-05
-2.134765418304596e-05,4.860097396885976e-05,1.4443112377193756e-05,5.84677945880685e-05
-1.8811519112205133e-05,4.9350521294400096e-05,6.65167635816033e-06,5.5659253121120855e-05
-1.8591150364954956e-05,5.0656224630074576e-05,-1.845018232415896e-06,5.3831499826628715e-05
-2.4450673663523048e-05,5.153843812877312e-05,-2.3289883301913505e-06,5.463457273435779e-05
-3.073316838708706e-05,4.6560588089050725e-05,2.2276615254668286e-06,5.479131141328253e-05
-3.132973506581038e-05,3.613033550209366e-05,3.398935632503708e-06,5.029395833844319e-05
-2.9399943741736934e-05,1.9005799913429655e-05,-2.1424016267701518e-06,4.9780395784182474e-05
-2.9874327083234675e-05,3.896043835993623e-06,-1.205248281621607e-05,5.464949572342448e-05
-2.9127813832019456e-05,-2.2552076188731007e-06,-1.6276508176815696e-05,5.6880395277403295e-05
-2.7908183255931363e-05,-9.18114346859511e-06,-1.4553511391568463e-05,5.753949153586291e-05
-2.9692148018511944e-05,-1.4832347915216815e-05,-1.3981512893224135e-05,6.277302600210533e-05
-3.261011079302989e-05,-1.3782871974399313e-05,-1.676348620094359e-05,6.50873698759824e-05
-3.826691317954101e-05,-7.934180757729337e-06,-2.179122020606883e-05,6.429116911021993e-05
-4.176213769824244e-05,-7.440556601068238e-06,-2.5169936634483747e-05,6.377929821610451e-05
-3.882527744281106e-05,-1.2201895515318029e-05,-2.542529364291113e-05,6.63588143652305e-05
-3.233443931094371e-05,-4.81520237372024e-06,-2.5538833142491058e-05,7.110731530701742e-05
-2.8615098926820792e-05,2.762228177743964e-05,-2.3908394723548554e-05,7.25455756764859e-05
-2.7319169021211565e-05,6.667435809504241e-05,-1.8448678019922227e-05,7.179079693742096e-05
-2.7197607778362e-05,8.471347246086225e-05,-1.289325791731244e-05,6.986950029386207e-05
-2.7802876502391882e-05,7.023417856544256e-05,-1.1556940989976283e-05,7.005727820796892e-05
-2.8769147320417687e-05,3.531328184180893e-05,-1.4218392607290298e-05,6.969843525439501e-05
-2.9250288207549602e-05,1.5835179283385514e-06,-1.2910475561511703e-05,6.893357203807682e-05
-2.9383802029769868e-05,-1.5205052477540448e-05,-3.605220854296931e-06,6.766979640815407e-05
-3.0342696845764294e-05,-1.4178609490045346e-05,7.755337719572708e-06,6.523843330796808e-05
-3.072669278481044e-05,-2.134094984285184e-06,1.1821596672234591e-05,6.378251418936998e-05
-2.9719281883444637e-05,1.3445443073578645e-05,9.17794204724487e-06,6.534528074553236e-05
-2.852959732990712e-05,2.244461211375892e-05,4.977786829840625e-06,6.71749803586863e-05
-2.841091190930456e-05,1.6551497537875548e-05,2.8850424769188976e-06,6.708571163471788e-05
-2.5671142793726176e-05,1.5029867199700675e-06,-1.0829998018380138e-06,6.266296259127557e-05
-2.234606654383242e-05,-6.694467629131395e-06,-9.913327630783897e-06,5.466837319545448e-05
-2.3801587303751148e-05,-7.903434379841201e-06,-1.7602704247110523e-05,4.990949673810974e-05
-2.8250149625819176e-05,-1.2277007044758648e-05,-2.018104169110302e-05,5.1682814955711365e-05
-3.06507499772124e-05,-1.971312849491369e-05,-1.9486558812786825e-05,5.5460248404415324e-05
-2.9358121537370607e-05,-1.9030158000532538e-05,-2.0316365407779813e-05,5.393493120209314e-05
-2.5972376533900388e-05,-1.1131425708299503e-05,-2.1168742023291998e-05,5.042279735789634e-05
-2.7441341444500722e-05,-1.979117087103077e-06,-1.7651260350248776e-05,5.3585434216074646e-05
-2.9867938792449422e-05,4.666071617975831e-07,-1.3053723705525044e-05,5.962514478596859e-05
-2.9260269002406858e-05,1.5753664683870738e-07,-9.670644431025721e-06,6.394762021955103e-05
-2.5002074835356325e-05,4.8923184294835664e-06,-4.966284905094653e-06,6.445504550356418e-05
-1.9851962861139327e-05,1.672350481385365e-05,-1.0757406698758132e-06,6.015090912114829e-05
-1.5212872312986292e-05,2.977397889480926e-05,2.6462537334737135e-06,5.692701961379498e-05
-1.3202375157561619e-05,3.880187796312384e-05,7.401547009067144e-06,5.54454090888612e-05
-1.6877460438990965e-05,4.2115538235520944e-05,1.0085380381497089e-05,5.3458606998901814e-05
-2.241191396024078e-05,4.8395460908068344e-05,6.193507488205796e-06,5.398552093538456e-05
-2.6326613806304522e-05,6.353636854328215e-05,-1.0283347364747897e-06,5.697918822988868e-05
-2.679055614862591e-05,7.891729910625145e-05,-6.415118605218595e-06,5.954195876256563e-05
-2.6886031264439225e-05,8.566462201997638e-05,-9.213961675413884e-06,5.791350486106239e-05
-2.8234950150363147e-05,8.222110045608133e-05,-1.0525330253585707e-05,5.030574175179936e-05
-2.950480302388314e-05,7.365705096162856e-05,-1.251642061106395e-05,4.50369443569798e-05
-2.760224924713839e-05,6.561671762028709e-05,-1.3009885151404887e-05,4.915536192129366e-05
-2.3802371288184077e-05,6.157037569209933e-05,-9.950814273906872e-06,5.69514995731879e-05
-1.9448070815997198e-05,5.365758261177689e-05,-4.449728294275701e-06,6.086067878641188e-05
-1.6228532331297174e-05,3.8971298636170104e-05,-8.8144594201367e-07,5.854413757333532e-05
-1.6657493688398972e-05,2.721206510614138e-05,-1.996312448682147e-06,5.217776197241619e-05
-2.265309012727812e-05,2.6828862246475182e-05,-5.194959612708772e-06,4.887024624622427e-05
-2.7623958885669708e-05,3.311131149530411e-05,-2.663852683326695e-06,5.203958789934404e-05
-2.8016518626827747e-05,4.141125828027725e-05,2.428852894809097e-06,5.672560291714035e-05
-2.7406453227740712e-05,4.2209478124277666e-05,3.1852396205067635e-06,5.719334149034694e-05
-2.7616601073532365e-05,3.349666076246649e-05,-8.852715609464212e-07,5.541685095522553e-05
-2.744543962762691e-05,2.676729673112277e-05,-7.967361852934118e-06,5.631065141642466e-05
-2.6119567337445915e-05,2.1718466086895205e-05,-1.3641547411680222e-05,5.679702735505998e-05
-2.5679933969513513e-05,1.5686733604525216e-05,-1.558865733386483e-05,5.109246194479056e-05
-2.965744170069229e-05,1.0049084266938735e-05,-1.7138170733232982e-05,4.5950098865432665e-05
-3.739035673788749e-05,6.8866661422362085e-06,-1.765240631357301e-05,4.4398893805919215e-05
-3.8798949390184134e-05,7.799937520758249e-06,-1.626957964617759e-05,4.38486531493254e-05
-3.468602881184779e-05,2.258909444208257e-05,-1.597968366695568e-05,4.7085002734092996e-05
-3.0321141821332276e-05,4.1526200220687315e-05,-1.809585046430584e-05,5.533916555577889e-05
-2.8071664928575046e-05,4.0164206438930705e-05,-2.1545369236264378e-05,6.068026414141059e-05
-2.8519509214675054e-05,1.8348371668253094e-05,-2.1161282347748056e-05,5.869742381037213e-05
-2.870741082006134e-05,-1.074486590368906e-05,-1.7092994312406518e-05,5.4265361541183665e-05
-2.8475689759943634e-05,-2.6623580197338015e-05,-9.07898629520787e-06,5.161251829122193e-05
-2.9453483875840902e-05,-2.2811227609054185e-05,-7.131961865525227e-06,4.9813381338026375e-05
-2.9365739464992657e-05,-5.602334113063989e-06,-1.223826711793663e-05,5.059082468505949e-05
-2.7539714210433885e-05,7.545168045908213e-06,-1.8219010598841123e-05,5.3749354265164584e-05
-2.5734439986990765e-05,1.4377033949131146e-05,-2.0503617633949034e-05,5.4773528972873464e-05
-2.5228135200450197e-05,2.1763820768683217e-05,-2.055088225461077e-05,5.426246207207441e-05
-2.6418783818371594e-05,3.043949618586339e-05,-1.8658531189430505e-05,5.428902295534499e-05
-2.9626589821418747e-05,3.724707858054899e-05,-1.2344557944743428e-05,5.4366599215427414e-05
-2.998587478941772e-05,4.211060513625853e-05,-8.279780558950733e-06,5.4169719078345224e-05
-2.7532429157872684e-05,4.6106732042972e-05,-1.0494663911231328e-05,5.4491600167239085e-05
-3.042047865164932e-05,3.835822644759901e-05,-1.2938846339238808e-05,5.3302243031794205e-05
-3.376425229362212e-05,1.7569100236869417e-05,-7.495379577449057e-06,5.175804108148441e-05
-3.30470284097828e-05,4.690195510193007e-06,-8.64330672811775e-07,5.154704922460951e-05
-3.129928882117383e-05,1.5020240425656084e-05,-1.5045071677377564e-06,5.341903670341708e-05
-2.8737636966980062e-05,3.6226356314728037e-05,-8.318280379171483e-06,5.632431202684529e-05
-2.5324110538349487e-05,5.197061182116158e-05,-1.1308422472211532e-05,5.6044205848593265e-05
-2.3810742277419195e-05,5.02041402796749e-05,-6.518199370475486e-06,5.452323239296675e-05
-2.3274298655451275e-05,3.829277920885943e-05,1.3028948160354048e-06,5.602690362138674e-05
-2.4457460312987678e-05,2.5317445761174895e-05,4.7639155127399135e-06,5.969387711957097e-05
-2.696016053960193e-05,1.4567036487278529e-05,4.87588386022253e-06,6.0610607761191204e-05
-2.7478607080411166e-05,1.2112413060094696e-05,2.5363149234181037e-06,6.019857755745761e-05
-2.850263990694657e-05,1.080114543583477e-05,-2.78455672741984e-06,5.89436458540149e-05
-2.922455132647883e-05,9.698121175460983e-06,-3.590415872167796e-06,5.789050192106515e-05
-2.800708170980215e-05,2.293294710398186e-05,4.237863777234452e-06,6.216044130269438e-05
-2.494170803402085e-05,3.950826794607565e-05,7.727644515398424e-06,6.596891034860164e-05
-2.472368760209065e-05,4.5259177568368614e-05,3.4903989671875024e-06,6.752050830982625e-05
-2.9938815714558586e-05,4.059103594045155e-05,-4.8557417358097155e-06,6.557731103384867e-05
-3.43785468430724e-05,3.636978362919763e-05,-1.4014031876286026e-05,6.579582986887544e-05
-3.173606819473207e-05,4.0804719901643693e-05,-1.982034336833749e-05,6.677270721411332e-05
-2.4008839318412356e-05,4.533641185844317e-05,-2.2856303985463455e-05,6.6687076468952e-05
-1.9688055544975214e-05,4.0853454265743494e-05,-2.525504351069685e-05,6.50817237328738e-05
-1.922677256516181e-05,3.1976334867067635e-05,-2.834468614310026e-05,6.350784678943455e-05
-2.074476287816651e-05,2.6780333428177983e-05,-2.8255837605684064e-05,6.390694761648774e-05
-2.0433220925042406e-05,2.5317476683994755e-05,-2.3463864636141807e-05,6.537635636050254e-05
-1.9418177544139326e-05,2.653449701028876e-05,-1.6751284420024604e-05,6.54612886137329e-05
-1.9823644834104925e-05,3.3608735975576565e-05,-1.1695625289576128e-05,6.38044293737039e-05
-1.9836770661640912e-05,4.5024095015833154e-05,-7.2822754191292915e-06,6.412728544091806e-05
-1.827480627980549e-05,5.2352785132825375e-05,-3.93498339690268e-06,6.55318726785481e-05
-1.5859373888815753e-05,4.8969548515742645e-05,-5.588311523752054e-06,6.690846203127876e-05
-1.4546099919243716e-05,3.924681368516758e-05,-1.5494762919843197e-05,6.493868568213657e-05
-1.7170412320410833e-05,4.012025601696223e-05,-2.3968230379978195e-05,6.368962931446731e-05
-2.440390562696848e-05,4.9356764066033065e-05,-2.433269764878787e-05,6.200756615726277e-05
-2.963766200991813e-05,5.036033326177858e-05,-2.055254481092561e-05,6.0553251387318596e-05
-3.227921115467325e-05,4.224104850436561e-05,-1.3240252883406356e-05,5.999802306178026e-05
-3.6236942833056673e-05,2.933032374130562e-05,-8.278180757770315e-06,6.017275882186368e-05
-3.635118264355697e-05,1.5836201782803982e-05,-9.867435437627137e-06,6.11236464465037e-05
-2.8125490644015372e-05,1.3095500435156282e-06,-1.1516503946040757e-05,6.350634066620842e-05
-2.228354787803255e-05,-1.1670032108668238e-05,-8.245501703640912e-06,6.461350130848587e-05
-2.144382415281143e-05,-1.6487609173054807e-05,-3.870444288622821e-06,6.384566222550347e-05
-2.0074972781003453e-05,-2.005480564548634e-05,-1.767976840483243e-07,6.190882413648069e-05
-1.8024695236817934e-05,-1.9031003830605187e-05,4.210231054457836e-06,6.317758379736915e-05
-1.610909021110274e-05,-1.1591440852498636e-05,2.5997151169576682e-06,6.7309541918803e-05
-1.4210972949513234e-05,-3.6307187656348106e-07,-2.6298710054106778e-06,7.090184226399288e-05
-1.2565562428790145e-05,7.447916232194984e-06,-7.671445018786471e-06,7.208524039015174e-05
-1.4673104487883393e-05,7.260905931616435e-06,-1.1248501323279925e-05,6.866135663585737e-05
-1.8702237866818905e-05,5.558892553381156e-06,-1.3974531611893326e-05,6.28609413979575e-05
-2.0665558622567914e-05,1.1146738870593254e-05,-1.5134892237256281e-05,6.048696377547458e-05
-2.0183706510579214e-05,1.2470210094761569e-05,-1.4618530258303508e-05,6.254277104744688e-05
-2.269588367198594e-05,4.127386432628555e-07,-1.4986321730248164e-05,6.14939199294895e-05
-2.9319506211322732e-05,-1.4215804185369052e-05,-1.627169876883272e-05,5.81860076636076e-05
-3.217627090634778e-05,-1.7047910660039634e-05,-1.4877055036777165e-05,5.7756577007239684e-05
-2.8303396902629174e-05,-4.725218332168879e-06,-8.6477821241715e-06,6.007999036228284e-05
-2.355174183321651e-05,1.1644196092674974e-05,-1.477561909268843e-06,6.292144098551944e-05
-2.0892290194751695e-05,1.844694634201005e-05,2.9933280529803596e-06,6.373999349307269e-05
-1.7896714780363254e-05,1.6360554582206532e-05,2.3509730908699566e-06,6.130234396550804e-05
-1.8417835235595703e-05,2.5826731871347874e-05,2.1203168216743506e-06,5.816621705889702e-05
-2.3574228180223145e-05,6.711074820486829e-05,4.6631616896775085e-06,5.572843292611651e-05
-2.7839765607495792e-05,0.0001285522448597476,7.003496648394503e-06,5.627566497423686e-05
-2.650069654919207e-05,0.0001600694959051907,4.9821292122942396e-06,5.989082274027169e-05
-2.329662129341159e-05,0.00013504071102943271,-2.125646005879389e-06,6.268046126933768e-05
-2.3046763089951128e-05,7.4998133641202e-05,-1.2217748917464633e-05,6.036743434378877e-05
-2.0679137378465384e-05,6.311196557362564e-06,-1.698870437394362e-05,5.324444646248594e-05
-1.4986728274379857e-05,-4.841950794798322e-05,-1.68984079209622e-05,5.107947436044924e-05
-1.2842900105169974e-05,-7.676194218220189e-05,-1.9146840713801794e-05,5.675247302860953e-05
-1.280933338421164e-05,-8.333472214872018e-05,-1.728656752675306e-05,5.8576642913976684e-05
-1.466599314881023e-05,-6.752328044967726e-05,-1.0193273737968411e-05,5.8238296333001927e-05
-1.664301089476794e-05,-3.7901612813584507e-05,-8.75758269103244e-06,5.5245644034584984e-05
-1.822266676754225e-05,-7.1816020863479935e-06,-1.3321972801350057e-05,4.9512800615048036e-05
-2.0238545403117314e-05,2.476927193129086e-06,-1.8868009647121653e-05,4.497345435083844e-05
-2.135010072379373e-05,2.6567181521386374e-06,-2.3451484594261274e-05,4.191563857602887e-05
-2.6168276235694066e-05,9.53125891101081e-06,-2.5193301553372294e-05,4.190091203781776e-05
-3.093565101153217e-05,2.8599930374184623e-05,-2.4500022846041247e-05,4.557816282613203e-05
-3.121954432572238e-05,5.535484160645865e-05,-2.3032322133076377e-05,4.810222890228033e-05
-2.919309372373391e-05,7.840878242859617e-05,-2.6128189347218722e-05,4.855016595683992e-05
-3.034712244698312e-05,8.918140520108864e-05,-3.0059807613724843e-05,5.107793549541384e-05
-3.404350354685448e-05,8.355961472261697e-05,-3.1504183425568044e-05,5.237964433035813e-05
-3.609816121752374e-05,7.058711344143376e-05,-3.086706783506088e-05,5.130756471771747e-05
-3.5141303669661283e-05,6.0107293393230066e-05,-2.8914620997966267e-05,4.992971662431955e-05
-3.223107705707662e-05,5.40827531949617e-05,-2.8726279197144322e-05,4.817487206310034e-05
-2.8415599444997497e-05,4.819155583390966e-05,-2.9793258363497443e-05,4.502940646489151e-05
-2.6313065973226912e-05,4.823142444365658e-05,-2.876769758586306e-05,4.499388160184026e-05
-2.798321656882763e-05,4.900540807284415e-05,-2.309949013579171e-05,4.923146843793802e-05
-2.967907494166866e-05,4.009957046946511e-05,-1.4664808986708522e-05,5.5202599469339475e-05
-2.782275805657264e-05,2.3899827283457853e-05,-1.1516372069309e-05,5.864488412044011e-05
-2.58429045061348e-05,1.9768149286392145e-05,-1.5277943020919338e-05,5.8664329117164016e-05
-2.615915764181409e-05,2.0569448679452762e-05,-1.7893749827635475e-05,5.7472421758575365e-05
-2.57115279964637e-05,1.5468538549612276e-05,-1.7312302588834427e-05,5.760003477917053e-05
-2.3470487576560117e-05,1.3861420484317932e-05,-1.6335208783857524e-05,6.098208905314095e-05
-2.003165900532622e-05,2.4394290448981337e-05,-1.5393996363854967e-05,6.75558258080855e-05
-1.7953532733372413e-05,3.780535553232767e-05,-1.2655786122195423e-05,6.892886449350044e-05
-1.8793729395838454e-05,4.3206611735513434e-05,-1.3908046639699023e-05,6.623113586101681e-05
-2.2130521756480448e-05,4.106189953745343e-05,-1.499519385106396e-05,6.443124584620818e-05
-2.4727178242756054e-05,3.514533818815835e-05,-1.2338809028733522e-05,6.129556277301162e-05
-2.474375651217997e-05,2.5228440790669993e-05,-9.356062037113588e-06,6.027735071256757e-05
-2.5770714273676276e-05,1.3861124898539856e-05,-7.743423338979483e-06,6.0954680520808324e-05
-2.9472066671587527e-05,3.2346961233997717e-06,-9.976932233257685e-06,6.25982356723398e-05
-3.177302278345451e-05,-1.770595332573066e-07,-9.531930118100718e-06,6.453711830545217e-05
-3.0107330530881882e-05,5.1486144911905285e-06,-6.878032763779629e-06,6.746011058567092e-05
-2.8065902370144613e-05,1.1204245311091654e-05,-7.01113367540529e-06,6.814466178184375e-05
-2.9801796699757688e-05,1.107311254600063e-05,-9.58169130171882e-06,6.467266211984679e-05
-3.426883995416574e-05,4.4990961214352865e-06,-1.1948554856644478e-05,6.242292147362605e-05
-3.7872694520046934e-05,7.752661304039066e-07,-8.21449611976277e-06,6.455704715335742e-05
-3.7211593735264614e-05,4.265509232936893e-06,-6.355188020279456e-08,6.623863009735942e-05
-3.3261461794609204e-05,1.2078822692274116e-05,2.019335397562827e-06,6.689210567856207e-05
-2.9040367735433392e-05,2.0672767277574167e-05,-5.219487775320886e-06,6.868795753689483e-05
-2.857702929759398e-05,2.036923251580447e-05,-1.349139438389102e-05,6.689610017929226e-05
-3.2221811125054955e-05,8.127062756102532e-06,-1.270571374334395e-05,6.27240224275738e-05
-3.4059183235513046e-05,7.899683396317414e-07,1.516628117315122e-06,5.921694537391886e-05
-3.1517029128735885e-05,5.212826636125101e-06,2.029210008913651e-05,5.6976539781317115e-05
-2.6445117327966727e-05,9.331161891168449e-06,2.8031754482071847e-05,5.697030428564176e-05
-2.1784517230116762e-05,1.0969040886266157e-05,2.3055708879837766e-05,5.937763853580691e-05
-2.039710852841381e-05,1.749221519276034e-05,1.7072436094167642e-05,6.127187953097746e-05
-2.2477137463283725e-05,2.6135885491385125e-05,1.6133122699102387e-05,6.414447852876037e-05
-2.4423909053439274e-05,3.152021236019209e-05,1.8824986909748986e-05,6.877855048514903e-05
-2.426906576147303e-05,2.878451778087765e-05,2.0955316358595155e-05,7.104247924871743e-05
-2.006226532103028e-05,3.061234383494593e-05,1.1509358046168927e-05,7.01197495800443e-05
-1.648449688218534e-05,3.146353628835641e-05,-8.298391662719951e-07,6.626495451200753e-05
-1.8648912373464555e-05,2.5619667212595232e-05,-8.619274012744427e-06,5.942439383943565e-05
-2.3441198209184222e-05,1.8242619262309745e-05,-1.1445842574175913e-05,5.4955133236944675e-05
-2.994673741341103e-05,1.0718733392423019e-05,-8.709896064829081e-06,5.560943463933654e-05
-3.446524715400301e-05,1.0948981071123853e-05,-7.567282409581821e-06,5.8498022553976625e-05
-3.299636591691524e-05,1.3339259567146655e-05,-9.330115062766708e-06,6.11812574788928e-05
-2.914738615800161e-05,1.8358899978920817e-05,-1.3659045180247631e-05,5.9166981372982264e-05
-2.8207967261550948e-05,2.241978290840052e-05,-1.2274442269699648e-05,5.819858779432252e-05
-2.8426480639609508e-05,1.604265344212763e-05,-5.438641437649494e-06,6.023172682034783e-05
-2.6486801289138384e-05,8.75880868989043e-06,-1.1465399438748136e-06,6.288359872996807e-05
-2.7051264623878524e-05,1.2127255104132928e-05,-4.344516582932556e-06,6.317192310234532e-05
-3.067040233872831e-05,2.2912348867976107e-05,-9.80075310508255e-06,6.072545511415228e-05
-3.224539614166133e-05,3.0938201234675944e-05,-1.1805540452769492e-05,6.144024519016966e-05
-3.121819827356376e-05,3.501361425151117e-05,-1.0572067367320415e-05,6.505585042759776e-05
-2.933318137365859e-05,3.33991993102245e-05,-1.1737114618881606e-05,6.680648948531598e-05
-2.779258466034662e-05,2.6744039132609032e-05,-1.595622961758636e-05,6.470578955486417e-05
-2.7819969545817003e-05,1.8157057638745755e-05,-1.6477382814628072e-05,6.184813537402079e-05
-2.9466385967680253e-05,1.2284820513741579e-05,-1.2943843103130348e-05,6.086434950702824e-05
-3.1557468901155517e-05,1.2377608072711155e-05,-9.97733513941057e-06,6.113379640737548e-05
-3.050935993087478e-05,1.7220354493474588e-05,-9.180866982205771e-06,5.9247762692393735e-05
-2.6703504772740416e-05,2.6716112188296393e-05,-6.313113772193901e-06,5.568463893723674e-05
-2.3564994990010746e-05,4.0128030377672985e-05,-2.5204253688571043e-06,5.308742402121425e-05
-2.1699279386666603e-05,5.3276238759281114e-05,-2.1358137018978596e-06,5.5024022003635764e-05
-2.455510912113823e-05,5.746077295043506e-05,-7.046323389658937e-06,5.842182144988328e-05
-2.956704884127248e-05,5.1140086725354195e-05,-1.3666146514879074e-05,5.517396857612766e-05
-2.8895512514282018e-05,4.5306311221793294e-05,-1.6031361155910417e-05,5.0594393542269245e-05
-2.7653275537886657e-05,4.0742674173088744e-05,-1.2978484846826177e-05,5.191106902202591e-05
-3.025049954885617e-05,3.705812923726626e-05,-1.0907143405347597e-05,5.2423547458602116e-05
-2.9642440495081246e-05,3.4341101127211004e-05,-1.0412234587420244e-05,5.3896259487373754e-05
-2.6891251764027402e-05,1.9326937035657465e-05,-1.4252321307139937e-05,5.593238165602088e-05
-2.6989511752617545e-05,7.402872483908141e-07,-2.0056269931956194e-05,5.451279866974801e-05
-2.749894338194281e-05,-7.992808605195023e-06,-2.2641439500148408e-05,5.255090945865959e-05
-2.9499520678655244e-05,-4.468309725780273e-06,-2.2119531422504224e-05,5.329796840669587e-05
-3.247242057113908e-05,5.2081536523473915e-06,-2.0040781237185e-05,5.3818166634300724e-05
-3.319235474918969e-05,1.3024815416429192e-05,-1.6472609786433168e-05,5.1959552365588024e-05
-3.211812145309523e-05,1.6449104805360548e-05,-9.978857633541338e-06,5.259594399831258e-05
-3.2393887522630394e-05,2.2401154637918808e-05,-4.835118943447014e-06,5.734851583838463e-05
-3.420788198127411e-05,3.588268009480089e-05,-1.9448516468401067e-06,6.247117562452331e-05
-3.305483915028162e-05,5.431063618743792e-05,-8.634921755401592e-07,6.383809522958472e-05
-2.8631762688746676e-05,7.403857307508588e-05,-5.100542352920456e-07,6.628716801060364e-05
-2.3323318600887433e-05,8.738867472857237e-05,6.881398206814993e-08,6.900054722791538e-05
-2.196065179305151e-05,8.297263411805034e-05,-2.0180978026473895e-06,6.68746288283728e-05
-2.4484548703185283e-05,6.424294406315312e-05,-1.0279073649144266e-05,5.9882531786570325e-05
-2.7428237444837578e-05,4.679822450270876e-05,-1.8301951058674604e-05,5.338415940059349e-05
-2.794551801343914e-05,3.353337524458766e-05,-1.7709407984511927e-05,4.962951788911596e-05
-2.7210098778596148e-05,2.1496560293599032e-05,-1.1895199349964969e-05,4.9456535634817556e-05
-2.629022128530778e-05,1.5200016605376732e-05,-8.764250196691137e-06,5.3458970796782523e-05
-2.2955879103392363e-05,1.785642780305352e-05,-1.0465441846463364e-05,5.735267768613994e-05
-2.056232733593788e-05,2.065818989649415e-05,-1.4490371540887281e-05,5.744592999690212e-05
-2.1477257178048603e-05,1.7634960386203602e-05,-1.627145138627384e-05,5.583822348853573e-05
-2.4003640646697022e-05,9.945036254066508e-06,-1.4821409422438592e-05,5.769116251030937e-05
-2.5233617634512484e-05,8.176662049663719e-06,-1.3882859093428124e-05,6.10583447269164e-05
-2.451581349305343e-05,1.5740592061774805e-05,-1.5532374163740315e-05,6.17638579569757e-05
-2.2190473828231916e-05,1.821049409045372e-05,-1.5412420907523483e-05,5.7168952480424196e-05
-2.15168074646499e-05,1.5772991901030764e-05,-1.2636683095479384e-05,4.994689516024664e-05
-2.552114165155217e-05,1.7984248188440688e-05,-1.4991392163210548e-05,4.6956611186033115e-05
-2.9247747079352848e-05,2.5307734176749364e-05,-2.0028426661156118e-05,5.0195532821817324e-05
-2.8524624212877825e-05,2.8560614737216383e-05,-1.872356006060727e-05,5.328622864908539e-05
-2.714329275477212e-05,2.9155275115044788e-05,-1.2534253983176313e-05,5.2238741773180664e-05
-2.8233762350282632e-05,3.407606345717795e-05,-8.058279490796849e-06,5.1416245696600527e-05
-2.8509177354862913e-05,3.642643423518166e-05,-8.923775567382108e-06,4.9660982767818496e-05
-2.6923817131319083e-05,3.6625922803068534e-05,-1.1273872587480582e-05,4.7141529648797587e-05
-2.5359597202623263e-05,3.592927168938331e-05,-1.0324411960027646e-05,4.6879242290742695e-05
-2.5409033696632832e-05,4.163927223999053e-05,-7.037358955130912e-06,5.0113736506318673e-05
-2.4303117243107408e-05,4.986960630048998e-05,-3.5858506635122467e-06,5.3268155170371756e-05
-2.1376839868025854e-05,4.823826384381391e-05,-1.4235143908081227e-06,5.69130752410274e-05
-2.0687777578132227e-05,3.549841858330183e-05,1.925060587382177e-06,6.08532500336878e-05
-2.4314704205607995e-05,2.879209023376461e-05,8.385876753891353e-06,5.940223127254285e-05
-2.686345214897301e-05,3.6877401726087555e-05,1.2377044185996056e-05,5.6032546126516536e-05
-2.344695349165704e-05,4.517320485319942e-05,6.854067578387912e-06,5.553529626922682e-05
-1.784459345799405e-05,4.174109926680103e-05,-2.3562818114442052e-06,5.4507410823134705e-05
-1.5080823686730582e-05,2.9594310035463423e-05,-8.962646461441182e-06,5.273024726193398e-05
-1.6326855984516442e-05,2.0558853066177107e-05,-1.535008595965337e-05,5.317281829775311e-05
-2.0806857719435357e-05,1.682183392404113e-05,-2.344988752156496e-05,5.2713443437824026e-05
-2.6070340027217753e-05,9.718078217701986e-06,-2.9957067454233766e-05,5.10173304064665e-05
-2.7932695957133546e-05,-2.6660247840482043e-06,-2.682235026441049e-05,5.1941602578153834e-05
-2.8163745810161345e-05,-6.103083705966128e-06,-1.7349437257507816e-05,5.8774534409167245e-05
-2.5868104785331525e-05,9.087205398827791e-06,-1.056292330758879e-05,6.509277591248974e-05
-2.3064976630848832e-05,2.598553510324564e-05,-8.419595360464882e-06,6.759735697414726e-05
-2.4805840439512394e-05,2.792209488688968e-05,-9.60882334766211e-06,6.581289926543832e-05
-2.721655255299993e-05,2.4646245947224088e-05,-9.850274182099383e-06,6.343721906887367e-05
-2.496041815902572e-05,2.9306036594789475e-05,-2.1658183868566994e-06,6.677419878542423e-05
-2.0495137505349703e-05,4.046769754495472e-05,4.775184606842231e-06,6.924898480065167e-05
-1.7781456335796975e-05,4.465252277441323e-05,-7.629638503203751e-07,6.30865542916581e-05
-1.670267192821484e-05,3.7871232052566484e-05,-8.277100278064609e-06,5.47594900126569e-05
-1.7321654013358057e-05,2.3200062059913762e-05,-1.3385807505983394e-05,5.3053550800541416e-05
-1.9949167835875414e-05,5.039528787165182e-06,-1.7263449990423396e-05,5.358074849937111e-05
-2.322564978385344e-05,-1.713913843559567e-05,-1.8751223251456395e-05,5.1085047743981704e-05
-2.6656278350856155e-05,-2.4520186343579553e-05,-1.7995593225350603e-05,4.87559664179571e-05
-2.752385444182437e-05,-1.3079878044663928e-05,-1.562602301419247e-05,4.8352801968576387e-05
-2.495635999366641e-05,3.916471541742794e-06,-1.6091138604679145e-05,5.179107756703161e-05
-2.0577146642608568e-05,1.3713824046135414e-05,-1.848802094173152e-05,5.6705655879341066e-05
-1.4889257727190852e-05,1.1393097338441294e-05,-2.1436342649394646e-05,5.934439832344651e-05
-8.902726222004276e-06,8.934640391089488e-06,-2.0911718820570968e-05,6.311639299383387e-05
-5.71646978642093e-06,1.2233093912072945e-05,-1.3061664503766224e-05,6.67139538563788e-05
-8.255543434643187e-06,1.9318315025884658e-05,-4.072564934176626e-06,6.70190856908448e-05
-1.3649069842358585e-05,3.117360029136762e-05,-2.9857126264687395e-06,6.786578887840733e-05
-1.624878859729506e-05,4.7214234655257314e-05,-8.537896064808592e-06,7.034367445157841e-05
-1.6368367141694762e-05,5.192508615436964e-05,-1.2013159903290216e-05,7.204303256003186e-05
-1.886068821477238e-05,4.038231054437347e-05,-9.346482329419814e-06,7.212415948743e-05
-2.2880587494000793e-05,2.3966043954715133e-05,-8.613926183898002e-06,7.166464638430625e-05
-2.6239642465952784e-05,1.1451470527390484e-05,-1.54707049659919e-05,7.210872718133032e-05
-3.1371622753795236e-05,1.0480432592885336e-06,-2.2759593775845133e-05,7.004431245150045e-05
-3.739072781172581e-05,-1.7765341908670962e-06,-2.5926001399056986e-05,6.588798714801669e-05
-4.1806415538303554e-05,-1.6121816770464648e-06,-2.786266486509703e-05,6.046789712854661e-05
-4.4469008571468294e-05,-4.762674961966695e-06,-3.456871854723431e-05,5.894698915653862e-05
-4.574272679747082e-05,-6.515896984637948e-06,-4.237446410115808e-05,6.137618765933439e-05
-4.389852983877063e-05,-3.966687472711783e-06,-4.4871660065837204e-05,6.148740067146719e-05
-3.3409127354389057e-05,4.838519544136943e-06,-4.0924416680354625e-05,6.138094613561407e-05
-2.117591975547839e-05,1.6348532881238498e-05,-3.240161095163785e-05,6.094973286963068e-05
-1.4092442143009976e-05,3.3759231882868335e-05,-2.1147088773432188e-05,6.0137041145935655e-05
-1.1470416211523116e-05,5.0584734708536416e-05,-7.088848633429734e-06,5.719110049540177e-05
-1.2452876035240479e-05,5.227864676271565e-05,9.088376486943162e-07,5.663168485625647e-05
-1.8615433873492293e-05,4.50588486273773e-05,6.629892141063465e-06,6.0934700741199777e-05
-2.7484833481139503e-05,3.0406861696974374e-05,1.1878662007802632e-05,6.228069105418399e-05
-3.4360014979029074e-05,2.0162973669357598e-05,1.3596560165751725e-05,6.147004023659974e-05
-3.6139885196462274e-05,1.788204099284485e-05,1.4811453183938283e-05,5.83663750148844e-05
-3.3452797651989385e-05,2.5280316549469717e-05,1.6644782590446994e-05,5.432019315776415e-05
-3.158748950227164e-05,3.761351763387211e-05,1.6747313566156663e-05,5.181726373848505e-05
-3.4685348509810865e-05,3.135912265861407e-05,6.9603120209649205e-06,5.2169252739986405e-05
-4.3437412386992946e-05,6.254880190681433e-06,-1.0533087333897129e-05,5.364478784031235e-05
-5.060956391389482e-05,-1.339196114713559e-05,-2.3981854610610753e-05,5.338992195902392e-05
-5.2373437938513234e-05,-1.1612054549914319e-05,-2.2816633645561524e-05,5.3251482313498855e-05
-5.1329061534488574e-05,-2.641837681949255e-07,-1.2825104931835085e-05,5.666053402819671e-05
-4.9889385991264135e-05,4.914232704322785e-06,-6.6527395574667025e-06,6.132374983280897e-05
-4.483248631004244e-05,-1.0422954801470041e-06,-8.204709047276992e-06,6.511082028737292e-05
-3.4005985071416944e-05,-5.787469035567483e-06,-1.3294568816490937e-05,6.942584877833724e-05
-2.532428152335342e-05,2.2525088638758461e-07,-2.086184213112574e-05,7.389936945401132e-05
-2.7995229174848646e-05,1.724520552670583e-05,-2.630547169246711e-05,7.752136298222467e-05
-3.167528848280199e-05,3.984096474596299e-05,-2.138841045962181e-05,8.308697579195723e-05
-3.114871651632711e-05,6.867377669550478e-05,-1.0048725926026236e-05,9.524548659101129e-05
-3.17421872750856e-05,0.00010862939234357327,3.3621622606005985e-06,0.00010982201638398692
-3.2676063710823655e-05,0.0001433098950656131,1.4691487194795627e-05,0.00011785644164774567
-3.277144787716679e-05,0.0001546104031149298,1.547390093037393e-05,0.00011843479296658188
-2.9807026294292882e-05,0.00014740609913133085,1.4208864740794525e-05,0.0001231488713528961
-3.1245421268977225e-05,0.0001257958065252751,2.127131119777914e-05,0.0001278075942536816
-3.607810504036024e-05,0.0001023354270728305,3.0134940971038304e-05,0.0001225170708494261
-3.897846181644127e-05,6.557466258527711e-05,2.4365566787309945e-05,0.00010830107203219086
-3.9816557546146214e-05,1.2947058166901115e-05,4.303116384107852e-06,9.090257663046941e-05
-3.265720442868769e-05,-2.3681326638325118e-05,-1.1643442121567205e-05,7.45532670407556e-05
-1.9926741515519097e-05,-3.873368405038491e-05,-1.5399024050566368e-05,6.415965617634356e-05
-9.837060133577324e-06,-4.939737118547782e-05,-1.5493675164179876e-05,6.000495341140777e-05
-3.6951912534277653e-06,-7.248667679959908e-05,-1.678363150858786e-05,5.713526843464933e-05
-7.834064490452874e-07,-9.580831101629883e-05,-1.5635238014510833e-05,5.300944030750543e-05
2.496523393347161e-06,-9.619848424335942e-05,-1.1230329619138502e-05,4.703780359704979e-05
1.1674518646032084e-05,-6.644940003752708e-05,8.696918030182132e-07,4.3175812606932595e-05
2.101869904436171e-05,-2.647836481628474e-05,1.3058196600468364e-05,3.707849464262836e-05
2.5690616894280538e-05,1.784703954399447e-06,1.1847797395603266e-05,2.8526650567073375e-05
3.078030567849055e-05,2.2735908714821562e-05,-4.262772563379258e-06,2.1800027752760798e-05
3.9609607483725995e-05,4.6459528675768524e-05,-2.049030808848329e-05,1.5645056919311173e-05
4.374964191811159e-05,6.795897206757218e-05,-2.701202902244404e-05,5.687845259672031e-06
3.432238372624852e-05,7.526497938670218e-05,-2.5444929633522406e-05,-4.746413196698995e-06
1.59864648594521e-05,6.323011621134356e-05,-2.3728480300633237e-05,-6.888748430355918e-06
-2.458474000377464e-06,3.28553251165431e-05,-2.9782675483147614e-05,-5.83485734750866e-06
-1.8001068383455276e-05,-9.357534509035759e-06,-4.005361915915273e-05,-1.5729443475720473e-05
-3.418010237510316e-05,-5.242525730864145e-05,-4.674960291595198e-05,-3.6233665014151484e-05
-5.59105392312631e-05,-8.149460336426273e-05,-4.975624324288219e-05,-5.1808954594889656e-05
-7.76789675001055e-05,-8.341059583472088e-05,-4.526543852989562e-05,-5.327131657395512e-05
-8.602185698691756e-05,-5.550388596020639e-05,-3.04107743431814e-05,-4.211217674310319e-05
-8.858612272888422e-05,-1.3536200640373863e-05,-1.7913531337399036e-05,-2.139182288374286e-05
-0.0001029997511068359,1.8163696950068697e-05,-1.9555944163585082e-05,1.514683390269056e-06
-0.00011828021524706855,2.9821292628184892e-05,-2.470913386787288e-05,1.8087610442307778e-05
-0.00011488905147416517,2.356898767175153e-05,-1.410632557963254e-05,2.6661673473427072e-05
-9.99637195491232e-05,8.212603461288381e-06,2.4678445242898306e-06,3.4528147807577625e-05
-8.542380237486213e-05,-1.1547712347237393e-05,6.131000191089697e-06,4.85337914142292e-05
-6.374072108883411e-05,-3.9989707147469744e-05,-5.035437879996607e-06,6.335687066894025e-05
-3.3135180274257436e-05,-5.851943205925636e-05,-1.618824535398744e-05,7.868140528444201e-05
-6.988961104070768e-06,-4.178303788648918e-05,-1.3632909940497484e-05,9.070574742509052e-05
9.46361615206115e-06,2.7879686967935413e-06,-1.395099502587982e-06,9.549353853799403e-05
1.763514956110157e-05,4.1967756260419264e-05,3.8793291423644405e-06,9.577783202985302e-05
2.3473359760828316e-05,6.191770808072761e-05,2.6722930215328233e-06,9.56389558268711e-05
3.616692265495658e-05,7.305008330149576e-05,5.5898444770718925e-06,9.972233965527266e-05
5.337751281331293e-05,7.830443792045116e-05,1.0607350304780994e-05,0.0001063695817720145
6.297079380601645e-05,7.780284795444459e-05,1.2841576790378895e-05,0.00010901816131081432
5.644487464451231e-05,7.684168667765334e-05,9.388087164552417e-06,0.00010522114462219179
3.529599416651763e-05,8.457071817247197e-05,-7.09143705535098e-07,9.626502287574112e-05
6.6699467424768955e-06,8.902770787244663e-05,-1.6138012142619118e-05,8.43495290610008e-05
-1.7108572137658484e-05,7.504711538786069e-05,-2.9187644031480886e-05,7.980399095686153e-05
-2.71613407676341e-05,5.0046273827319965e-05,-3.238256249460392e-05,9.185499948216602e-05
-3.0219513064366765e-05,3.860183642245829e-05,-2.2550473659066483e-05,0.00012036419502692297
-4.109422297915444e-05,4.440026168595068e-05,-5.4198667385207955e-06,0.00015233484737109393
-5.920640251133591e-05,4.461499338503927e-05,1.1635709597612731e-05,0.00017026826390065253
-7.158419612096623e-05,2.914927426900249e-05,2.6178237021667883e-05,0.0001687909389147535
-7.284226740011945e-05,2.8766300602001138e-05,3.501132596284151e-05,0.00015926761261653155
-6.330817268462852e-05,6.072703035897575e-05,3.500489401631057e-05,0.00014900360838510096
-4.658438774640672e-05,9.340122051071376e-05,2.5724799343151972e-05,0.00013664398284163326
-3.025736441486515e-05,0.0001006579987006262,7.307992746063974e-06,0.00012447542394511402
-2.144360769307241e-05,8.298017201013863e-05,-1.3443175703287125e-05,0.00011337237810948864
-1.630191400181502e-05,6.970306276343763e-05,-2.19326884689508e-05,9.905037586577237e-05
-1.0910942364716902e-05,8.091980271274224e-05,-9.285922715207562e-06,7.551450107712299e-05
-3.2591860872344114e-06,0.00010500389180378988,9.534704076941125e-06,3.199490674887784e-05
2.3342217900790274e-06,0.00011820576764876023,1.917450390465092e-05,-1.756864548951853e-05
3.1168329428510333e-07,9.648578998167068e-05,1.703678208286874e-05,-6.003676389809698e-05
-5.364848675526446e-06,4.320877997088246e-05,5.1919517574106067e-08,-0.00011087909661000594
-8.015400453587063e-06,-2.123132389897364e-06,-2.0965446310583502e-05,-0.0001546332350699231
-1.458324277336942e-06,-2.7958791179116815e-05,-3.351077975821681e-05,-0.00016326355398632586
8.402826097153593e-06,-4.5659839088330045e-05,-3.420857683522627e-05,-0.0001398124877596274
1.3995231711305678e-05,-5.60552034585271e-05,-2.9732032999163494e-05,-0.0001101459565688856
9.426847100257874e-06,-5.034216519561596e-05,-2.253617458336521e-05,-8.66751724970527e-05
-2.272824758620118e-06,-3.3521751902299e-05,-1.7332806237391196e-05,-5.68377690797206e-05
-1.1819981409644242e-05,-1.3421210496744607e-05,-2.0170298739685677e-05,-1.181256720883539e-05
-1.4029650628799573e-05,3.4237405088788364e-06,-2.833310645655729e-05,3.683781324070878e-05
-1.2255159163032658e-05,1.1156401342304889e-05,-3.379217741894536e-05,7.226823072414845e-05
-1.2278595022507943e-05,1.4096211089054123e-05,-3.300508615211584e-05,9.253712778445333e-05
-1.969539880519733e-05,1.2342503396212123e-05,-3.093601844739169e-05,0.0001061164221027866
-3.6362656828714535e-05,2.626401737870765e-06,-3.3602504117880017e-05,0.00011489979806356132
-5.634356421069242e-05,-1.3272690011945087e-05,-4.088432979187928e-05,0.00011073494533775374
-7.80687405494973e-05,-2.8554730306495912e-05,-4.4705353502649814e-05,8.687009540153667e-05
-9.518575825495645e-05,-3.3747699490049854e-05,-3.8904374378034845e-05,4.978003562428057e-05
-9.376861999044195e-05,-1.8235861716675572e-05,-2.1798095986014232e-05,2.0627479898394085e-05
-7.469116826541722e-05,-6.654633466496307e-07,-5.563581908063497e-06,1.282689754589228e-05
-5.350703577278182e-05,9.031108675117139e-06,1.2723589861707296e-06,1.5071605048433412e-05
-3.205390021321364e-05,2.1244690287858248e-05,4.5386727833829354e-06,5.071412942925235e-06
-1.1780543900385965e-05,2.7294165192870423e-05,1.1397505659260787e-05,-2.4423556169494987e-05
-3.6106553125136998e-06,2.3985114239621907e-05,1.703322777757421e-05,-4.7332043322967365e-05
-1.7546552044223063e-05,2.3704908016952686e-05,1.2321768736001104e-05,-3.0455343221547082e-05
-4.411459667608142e-05,2.50521807174664e-05,-6.982488685025601e-07,9.3169264800963e-06
-6.840044807177037e-05,2.310558375029359e-05,-1.4410935364139732e-05,4.023396468255669e-05
-8.219648589147255e-05,2.0896395653835498e-05,-2.174110704800114e-05,6.007998308632523e-05
-8.646562491776422e-05,2.4344648409169167e-05,-1.6104195310617797e-05,7.789306982886046e-05
-9.10240487428382e-05,3.892309541697614e-05,-5.809592494188109e-06,0.00010048905824078247
-9.089639934245497e-05,5.658402369590476e-05,-1.8439044424667372e-06,0.00012219186464790255
-8.653425902593881e-05,6.230704457266256e-05,-3.7037962101749144e-06,0.00013104462414048612
-8.241864270530641e-05,5.484412031364627e-05,-7.232439656945644e-06,0.00012122502084821463
-7.661147537874058e-05,4.343429100117646e-05,-9.924780897563323e-06,0.0001050761275109835
-6.717431824654341e-05,4.021825589006767e-05,-1.1706401892297436e-05,9.91853084997274e-05
-5.401424641604535e-05,4.333633478381671e-05,-1.1190108125447296e-05,9.820920968195423e-05
-3.8200516428332776e-05,4.2056621168740094e-05,-8.821688425086904e-06,9.280627273255959e-05
-2.7222858989262022e-05,2.7722655431716703e-05,-8.371594958589412e-06,8.831018203636631e-05
-2.5248229576391168e-05,8.950602023105603e-06,-1.3795111044601072e-05,9.130573744187132e-05
-3.0793406040174887e-05,-3.962036316806916e-06,-2.1938763893558644e-05,9.979353490052745e-05
-3.9935977838467807e-05,-8.724506187718362e-06,-2.816940650518518e-05,0.00010817901784321293
-4.258989429217763e-05,-8.068251986514952e-07,-2.912090167228598e-05,0.00011636211274890229
-3.3416858059354126e-05,2.3657614292460494e-05,-2.1118212316650897e-05,0.0001362184848403558
-2.5820316295721568e-05,6.098920130170882e-05,-5.305797458277084e-06,0.00016982427041511983
-3.057066714973189e-05,9.090900130104274e-05,8.492332199239172e-06,0.00019847262592520565
-3.767938687815331e-05,9.648487321101129e-05,9.693351785244886e-06,0.000203881980269216
-3.4079137549269944e-05,8.453911868855357e-05,5.099128088659199e-07,0.0001878750481409952
-2.2011321561876684e-05,7.014315633568913e-05,-6.4650866988813505e-06,0.0001628848840482533
-1.2316671018197667e-05,5.506196976057254e-05,-8.019065717235208e-06,0.00013648258754983544
-4.263793925929349e-06,3.735307473107241e-05,-8.349907147930935e-06,0.0001185587389045395
2.4192434011638397e-06,2.065259286609944e-05,-7.493106750189327e-06,0.00010847209341591224
1.3287827641761396e-05,8.462107871309854e-06,-6.719453722325852e-06,8.992384391603991e-05
2.620110899442807e-05,-2.9298219033080386e-06,-7.81502512836596e-06,6.10541392234154e-05
3.2687123166397214e-05,-2.419995553282206e-06,-7.680366252316162e-06,4.0327435272047296e-05
2.818324719555676e-05,2.6920736218016827e-06,-5.910725576541154e-06,4.195491419523023e-05
1.997281469812151e-05,3.8026641959731933e-06,-2.29048805522325e-06,5.5777250963728875e-05
1.9071476344834082e-05,1.165551566373324e-05,2.660264726728201e-06,6.098321682657115e-05
2.4756127459113486e-05,2.0530333131318912e-05,6.393609055521665e-06,6.108521483838558e-05
3.308835584903136e-05,2.1010298951296136e-05,8.799890565569513e-06,6.161782948765904e-05
3.425544127821922e-05,1.9363589672138914e-05,7.54000075176009e-06,5.3428735554916784e-05
2.4027809558901936e-05,2.6354056899435818e-05,3.437842451603501e-06,2.5069024559343234e-05
7.371392712229863e-06,3.6344779800856486e-05,-2.407709871476982e-06,-1.8001810531131923e-05
-9.707788194646128e-06,3.689025834319182e-05,-9.48167871683836e-06,-4.7498011554125696e-05
-2.5046561859198846e-05,2.4858436518115923e-05,-2.0710911485366523e-05,-4.6323679271154106e-05
-3.750617179321125e-05,7.856924639781937e-06,-3.340734838275239e-05,-2.8186001145513728e-05
-4.712821464636363e-05,-6.147724434413249e-06,-4.125187115278095e-05,-1.2069868716935162e-05
-5.590982982539572e-05,-1.406655883329222e-05,-4.103647006559186e-05,-2.5452376917201036e-07
-6.037450293661095e-05,-1.2926038834848441e-05,-3.3054573577828705e-05,1.247169348062016e-05
-5.554178642341867e-05,1.0125786502612755e-06,-2.189637416449841e-05,2.869544186978601e-05
-4.584217458614148e-05,2.0198149286443368e-05,-1.4885584278090391e-05,4.8240723117487505e-05
-3.862728044623509e-05,2.5859726520138793e-05,-1.806169530027546e-05,6.409447087207809e-05
-3.5524091799743474e-05,2.2566844563698396e-05,-2.60955002886476e-05,7.208358874777332e-05
-3.362710776855238e-05,4.2478950490476564e-05,-2.5277518943767063e-05,7.939675560919568e-05
-3.2562631531618536e-05,8.731868001632392e-05,-1.3425601537164766e-05,8.55389007483609e-05
-3.592099164961837e-05,0.00011690796964103356,-1.4210146446202998e-06,8.809726568870246e-05
-4.1581653931643814e-05,0.00011241044558119029,8.682017323735636e-06,8.79983272170648e-05
-4.336053098086268e-05,8.821128722047433e-05,2.2132377125672065e-05,8.980077836895362e-05
-3.6080749850953e-05,6.122422928456217e-05,3.277296491432935e-05,9.353367204312235e-05
-2.7605990908341482e-05,3.37584970111493e-05,1.8944498151540756e-05,9.406122990185395e-05
-2.5791827283683233e-05,5.288567081151996e-06,-1.0832912266778294e-05,9.476375998929143e-05
-2.243582457595039e-05,-2.1961313905194402e-05,-3.2505664421478286e-05,9.543840860715136e-05
-1.7986154489335604e-05,-4.127377178519964e-05,-3.755460784304887e-05,8.629346848465502e-05
-1.838142088672612e-05,-3.179751365678385e-05,-2.9704435291932896e-05,6.987560482230037e-05
-2.999376920342911e-05,-7.674053449591156e-06,-1.938464083650615e-05,6.0601261793635786e-05
-4.6245411795098335e-05,2.1757350623374805e-06,-1.0639581887517124e-05,5.730717020924203e-05
-5.328802581061609e-05,-2.5283964077971177e-06,-4.852588517678669e-06,5.196121855988167e-05
-4.745950354845263e-05,-1.2706825145869516e-05,-6.334862518997397e-07,5.089548722025938e-05
-2.9723560146521777e-05,-1.739861909300089e-05,4.719820026366506e-06,6.378674152074382e-05
-1.4082354937272612e-05,-1.714478230496752e-06,1.298834104090929e-05,8.709276153240353e-05
-1.1898388947884087e-05,3.148049290757626e-05,1.6328765923390165e-05,0.00010319819557480514
-1.4368309166457038e-05,5.3346560889622197e-05,1.0578489309409633e-05,0.0001017082977341488
-1.2149977919762023e-05,4.7555131459375843e-05,-2.548355837461713e-07,9.013032831717283e-05
-6.078519163565943e-06,2.7896787287318148e-05,-8.586960575485136e-06,7.773834659019485e-05
-2.857005256373668e-06,7.79609581513796e-06,-7.459103471774142e-06,7.180109969340265e-05
-1.8053069084089657e-07,-6.261125690798508e-06,-1.377622425025038e-06,7.436241867253557e-05
8.559308298572432e-06,-6.627374659728957e-06,6.445858389270143e-07,7.727695629000664e-05
1.6435129509773105e-05,5.523861545952968e-06,-3.6569372241501696e-06,7.315240509342402e-05
1.2636136489163619e-05,2.1129415472387336e-05,-9.697433597466443e-06,6.466693594120443e-05
4.490158467262972e-09,3.1308365578297526e-05,-1.2624665941984858e-05,5.7903056585928425e-05
-1.0944943824142683e-05,3.1929499527905136e-05,-1.1676057511067484e-05,5.559348937822506e-05
-1.9239323592046276e-05,2.3899840016383678e-05,-9.370217412651982e-06,5.280451659928076e-05
-2.792434133880306e-05,9.953698281606194e-06,-6.643029337283224e-06,4.37166600022465e-05
-3.5386328818276525e-05,-1.1425206139392685e-05,-7.461475433956366e-06,3.150020711473189e-05
-3.966565418522805e-05,-2.8721709895762615e-05,-1.3632120499096345e-05,2.0677240172517486e-05
-4.0193252061726525e-05,-2.3387494366033934e-05,-2.0422836314537562e-05,2.093618422804866e-05
-3.744071727851406e-05,-2.108009311996284e-06,-2.5456329240114428e-05,3.003136043844279e-05
-3.4346718166489154e-05,1.6653673810651526e-05,-2.7284833777230233e-05,2.9890901714679785e-05
-3.1261559342965484e-05,2.99499552056659e-05,-2.547388976381626e-05,2.4947470592451282e-05
-3.129483957309276e-05,4.403463753988035e-05,-1.996257014980074e-05,2.422171746729873e-05
-3.781891064136289e-05,5.567685730056837e-05,-1.5004558918008115e-05,2.7098703867523e-05
-4.777054346050136e-05,5.0894810556201264e-05,-1.7807389667723328e-05,2.8304002626100555e-05
-5.354404856916517e-05,2.7357216822565533e-05,-2.432161636534147e-05,3.0013017749297433e-05
-5.006965875509195e-05,7.147699761844706e-06,-2.9298480512807146e-05,3.756938531296328e-05
-4.1465031245024875e-05,7.267635282914853e-06,-3.038262002519332e-05,4.37889393651858e-05
-3.400227797101252e-05,1.8934608306153677e-05,-2.479686008882709e-05,4.808146695722826e-05
-3.051284875255078e-05,3.2847423426574096e-05,-1.6579611838096753e-05,5.5111471738200635e-05
-3.3750136935850605e-05,3.959931564168073e-05,-1.2432902622094844e-05,6.408974877558649e-05
-3.449817086220719e-05,3.741460750461556e-05,-1.1218100553378463e-05,7.025362720014527e-05
-2.223917908850126e-05,3.608020051615313e-05,-8.263985364465043e-06,7.642864511581138e-05
-6.023105470376322e-06,4.3062969780294225e-05,1.2040900401188992e-06,7.939709030324593e-05
-1.0935419822999393e-06,5.850000161444768e-05,1.2363468158582691e-05,8.048808376770467e-05
-6.830705387983471e-07,7.106037810444832e-05,1.4616281077906024e-05,8.488105959258974e-05
3.979600933234906e-06,7.375601126113907e-05,6.442313406296307e-06,8.916561637306586e-05
8.030046956264414e-06,7.090167491696775e-05,-2.4394248612225056e-06,8.994247764348984e-05
6.111249604145996e-06,7.005180668784305e-05,-1.0524553317736718e-06,8.897591033019125e-05
-3.766342388189514e-06,7.101710070855916e-05,9.025648068927694e-06,8.646113565191627e-05
-1.828218955779448e-05,7.268719491548836e-05,1.689342207100708e-05,8.171126683009788e-05
-3.311205000500195e-05,7.841314072720706e-05,1.4315214684756938e-05,7.601140532642603e-05
-4.039314080728218e-05,8.734488801565021e-05,2.739006276897271e-06,6.652428419329226e-05
-3.476611527730711e-05,7.001980702625588e-05,-1.587180122442078e-05,5.539356425288133e-05
-2.242787195427809e-05,1.575533315190114e-05,-3.940748138120398e-05,5.002432590117678e-05
-1.3512948498828337e-05,-2.7865558877238072e-05,-5.475747093441896e-05,4.7834069846430793e-05
-5.257900284050265e-06,-2.321904685231857e-05,-5.2439383580349386e-05,4.173763591097668e-05
4.679252015193924e-06,1.0595233106869273e-05,-3.1435309210792184e-05,4.312332021072507e-05
2.7659953047987074e-06,3.264932456659153e-05,-4.176018137513893e-06,4.6725082938792184e-05
-1.3587681678473018e-05,4.195624933345243e-05,8.742909813008737e-06,4.3356780224712566e-05
-3.446789924055338e-05,4.485044701141305e-05,6.428214419429423e-06,3.609618579503149e-05
-4.886330498266034e-05,3.73052062059287e-05,-2.463325699864072e-06,2.8192174795549363e-05
-5.378376226872206e-05,2.5630764866946265e-05,-8.6851796368137e-06,2.6000034267781302e-05
-5.6375669373665005e-05,2.288515133841429e-05,-1.2291759048821405e-05,2.6304247512598522e-05
-5.8634210290620103e-05,2.647200926730875e-05,-1.6737512851250358e-05,2.611681520647835e-05
-6.319721433101222e-05,2.2900610929355025e-05,-2.3389711714116856e-05,2.5445364371989854e-05
-6.727873551426455e-05,1.0545052646193653e-05,-2.6245901608490385e-05,2.552494333940558e-05
-6.635643512709066e-05,-9.110282007895876e-06,-2.7473375666886568e-05,2.9457605705829337e-05
-5.612724271486513e-05,-3.109408135060221e-05,-3.409187775105238e-05,3.694579572766088e-05
-4.37663184129633e-05,-5.10765821672976e-05,-4.2961521103279665e-05,4.2920641135424376e-05
-3.880528674926609e-05,-5.945683369645849e-05,-4.571269528241828e-05,4.399511817609891e-05
-4.011571218143217e-05,-5.8395409723743796e-05,-4.12801127822604e-05,4.4099451770307496e-05
-3.64853476639837e-05,-5.5098760640248656e-05,-3.4795401006704196e-05,4.69896403956227e-05
-2.4629503968753852e-05,-4.963809624314308e-05,-2.2998285203357227e-05,4.915738827548921e-05
-1.5053776223794557e-05,-3.6592999094864354e-05,-4.942600298818434e-06,5.1245548092992976e-05
-1.3878629033570178e-05,-1.1442713002907112e-05,1.9393026377656497e-05,5.5834079830674455e-05
-1.5002169675426558e-05,2.455890535202343e-05,5.064340803073719e-05,5.948531907051802e-05
-1.3359471267904155e-05,6.014882819727063e-05,7.056566391838714e-05,5.84637418796774e-05
-1.0658508472261019e-05,8.641782187623903e-05,5.580046490649693e-05,5.287535168463364e-05
-1.0165615094592795e-05,0.00010212795314146206,2.406878957117442e-05,4.7536879719700664e-05
-1.5303032341762446e-05,0.00010377752914791927,-1.5724808690720238e-06,4.263374285073951e-05
-2.0468112779781222e-05,9.28883018787019e-05,-1.2313645129324868e-05,3.861517325276509e-05
-2.1423353246063925e-05,8.18438857095316e-05,-1.0648616807884537e-05,3.672428647405468e-05
-2.0053372281836346e-05,6.957389268791303e-05,-9.04593434825074e-06,3.963728522649035e-05
-1.772715950210113e-05,5.4151969379745424e-05,-1.2678138773480896e-05,4.967780114384368e-05
-1.618911664991174e-05,3.693991675390862e-05,-1.4696035577799194e-05,6.002170994179323e-05
-1.7731817933963612e-05,2.0843279344262555e-05,-1.3893690265831538e-05,6.39070785837248e-05
-1.6727764887036756e-05,1.2605125448317267e-05,-1.3565354493039194e-05,6.058068902348168e-05
-1.639841684664134e-05,6.313485414466413e-07,-1.191664796351688e-05,5.72494427615311e-05
-1.5610665286658332e-05,-1.0675292287487537e-05,-1.3179243069316726e-05,5.812836388940923e-05
-1.326234905718593e-05,-1.1516786798893008e-05,-1.7871023374027573e-05,6.116754957474768e-05
-1.3216681509220507e-05,2.0940697140758857e-06,-2.1826203010277823e-05,6.155855226097628e-05
-1.5352452464867383e-05,1.2862707080785185e-05,-2.2000467652105726e-05,5.82847605983261e-05
-1.7949203538591973e-05,1.4316047781903762e-05,-1.9702569261426106e-05,5.566068648477085e-05
-2.0162788132438436e-05,1.4449590707954485e-05,-1.5629120753146708e-05,5.602554665529169e-05
-2.277795283589512e-05,2.0556326489895582e-05,-1.2674271602008957e-05,6.0353420849423856e-05
-2.537263571866788e-05,2.75776310445508e-05,-8.86824000190245e-06,6.564479554072022e-05
-2.4607261366327293e-05,3.0370732929441147e-05,-4.076895038451767e-06,7.013650611042976e-05
-1.956914275069721e-05,3.37960482283961e-05,-7.114262530194537e-07,7.590372842969373e-05
-1.5201020687527489e-05,3.727102739503607e-05,1.3495122175299912e-06,8.371876901946962e-05
-1.4570175153494347e-05,3.772931086132303e-05,1.6480133524510165e-07,8.705432992428541e-05
-1.809461355151143e-05,3.3992724638665095e-05,-5.968530786049087e-06,8.194312249543145e-05
-2.3916911231935956e-05,3.334337816340849e-05,-1.3462796232488472e-05,7.277715485543013e-05
-2.938070429081563e-05,2.951505666715093e-05,-1.490674458182184e-05,6.52352609904483e-05
-3.09853239741642e-05,1.9567072740755975e-05,-9.274605872633401e-06,6.129413668531924e-05
-3.159023617627099e-05,1.098785378417233e-05,-4.4982471081311814e-06,6.140267942100763e-05
-3.42447092407383e-05,6.441905497922562e-06,-6.362085059663514e-06,6.427915650419891e-05
-3.853985253954306e-05,2.775328539428301e-06,-1.3612536349683069e-05,6.611237768083811e-05
-4.3548381654545665e-05,-1.1193167210876709e-06,-2.101861718983855e-05,6.454634421970695e-05
-4.43438439106103e-05,3.4364390444352466e-07,-2.5323490262962878e-05,6.437804404413328e-05
-3.5337929148226976e-05,1.2520407835836522e-05,-2.9445462132571265e-05,6.714623305015266e-05
-2.66741535597248e-05,3.384317096788436e-05,-2.935786687885411e-05,6.96287170285359e-05
-2.552737896621693e-05,4.937565608997829e-05,-2.2697297026752494e-05,6.943070911802351e-05
-2.4023347577895038e-05,4.200324110570364e-05,-1.1762516805902123e-05,7.070595893310383e-05
-2.1316316633601673e-05,3.7324549339246005e-05,-3.875978563883109e-06,7.514134631492198e-05
-2.3824059098842554e-05,4.675739546655677e-05,1.3544815828936407e-06,7.370562525466084e-05
-2.864713860617485e-05,5.052395863458514e-05,6.030943495716201e-06,7.002009078860283e-05
-2.7762114768847823e-05,4.469025952857919e-05,5.144354872754775e-06,6.547401426360011e-05
-2.5115459720836952e-05,4.346945570432581e-05,8.014590093807783e-07,6.285303243203089e-05
-2.6304489438189194e-05,4.6157834731275216e-05,-1.230407065122563e-06,6.017209670972079e-05
-2.901056177506689e-05,4.8231515393126756e-05,-2.792148279695539e-06,5.8444260503165424e-05
-2.8884975108667277e-05,4.4980748498346657e-05,-4.754700967168901e-06,5.9379559388617054e-05
-2.5708430257509463e-05,3.6324730899650604e-05,-7.4379663601575885e-06,6.031254451954737e-05
-2.3425174731528386e-05,3.0772043828619644e-05,-1.10879227577243e-05,6.190738349687308e-05
-2.2112315491540357e-05,3.110627949354239e-05,-1.5225320566969458e-05,6.340641266433522e-05
-2.1193636712268926e-05,3.206693509127945e-05,-1.8841434211935848e-05,6.396532262442634e-05
-2.333580778213218e-05,2.7621383196674287e-05,-1.8619781258166768e-05,6.172585563035682e-05
-2.8496317099779844e-05,2.3566462914459407e-05,-1.6709789633750916e-05,5.7296834711451083e-05
-3.0652958230348304e-05,2.211738501500804e-05,-1.5980973330442794e-05,5.2822073485003784e-05
-2.9394072043942288e-05,2.1033454686403275e-05,-1.8147153241443448e-05,5.12084698129911e-05
-3.0178325687302276e-05,1.8184204236604273e-05,-1.9816647181869484e-05,5.0848626415245235e-05
-3.311654654680751e-05,1.2992538358957972e-05,-1.7919162928592414e-05,5.2363880968187004e-05
-3.578892574296333e-05,3.5482319162838394e-06,-1.5251129298121668e-05,5.10030185978394e-05
-4.043738590553403e-05,-7.268913009284006e-07,-1.4047885088075418e-05,4.589196396409534e-05
-4.311813972890377e-05,4.3005802581319585e-06,-9.896029041556176e-06,4.255948806530796e-05
-3.951667167712003e-05,1.2832137144869193e-05,-1.750400315359002e-06,4.43410717707593e-05
-3.407806434552185e-05,2.548995144024957e-05,8.048597919696476e-06,4.896410973742604e-05
-2.9981505576870404e-05,4.183502824162133e-05,1.0745965482783504e-05,5.599209907813929e-05
-2.8677915906882845e-05,4.111895032110624e-05,5.4176675803319085e-06,5.902034172322601e-05
-2.766857505775988e-05,3.531884794938378e-05,-7.511314947805658e-07,5.924478318775073e-05
-2.5179642761941068e-05,4.370702663436532e-05,-5.061574483988807e-06,6.0869682783959433e-05
-2.3539052563137375e-05,6.043392204446718e-05,-1.406701244377473e-06,6.05699751758948e-05
-2.383935498073697e-05,7.602526602568105e-05,3.260590347053949e-06,6.067698996048421e-05
-2.132059853465762e-05,7.492765871575102e-05,1.6659355424053501e-06,5.984167000860907e-05
-1.6545720427529886e-05,6.105883949203417e-05,-2.587079961813288e-06,5.747386239818297e-05
-1.364357831334928e-05,4.996404459234327e-05,-1.0465410923643503e-05,5.421343303169124e-05
-1.8661183275980875e-05,4.539006476989016e-05,-1.831391273299232e-05,5.458632222143933e-05
-2.9834802262485027e-05,3.7799614801770076e-05,-2.6125584554392844e-05,5.6868637329898775e-05
-3.697330612340011e-05,1.8826323866960593e-05,-3.5604211007012054e-05,5.7756413298193365e-05
-3.9594870031578466e-05,2.6146535674342886e-06,-4.5945307647343725e-05,5.324629819369875e-05
-4.1191207856172696e-05,9.708222933113575e-06,-5.004092236049473e-05,4.5361222873907536e-05
-4.073476520716213e-05,3.466348061920144e-05,-4.045195601065643e-05,4.3314539652783424e-05
-3.7312955100787804e-05,4.6400447899941355e-05,-2.3658087229705416e-05,4.9911464884644374e-05
-3.326138175907545e-05,3.068216028623283e-05,-1.2233851521159522e-05,5.7893099437933415e-05
-2.784953721857164e-05,1.0055045095214155e-05,-8.29747204988962e-06,5.933151987846941e-05
-1.9867211449309252e-05,2.4683138235559454e-06,-5.653740572597599e-06,5.7734847359824926e-05
-1.3745543583354447e-05,-2.699340711842524e-06,-5.176128979655914e-06,5.891199907637201e-05
-1.3377978575590532e-05,-1.3250803931441624e-05,-9.93989669950679e-06,5.957527901045978e-05
-1.4015759006724693e-05,-2.0330508050392382e-05,-1.517986584076425e-05,5.545901876757853e-05
-1.0641196240612771e-05,-2.4050723368418403e-05,-1.592392254678998e-05,5.2462502935668454e-05
-6.002774171065539e-06,-1.9048427930101752e-05,-1.7340635167784058e-05,5.560712452279404e-05
-5.283985046844464e-06,5.640501512971241e-06,-2.0849254724453203e-05,6.06396934017539e-05
-1.3704373486689292e-05,4.070541763212532e-05,-1.6608177247690037e-05,5.814720498165116e-05
-2.909006434492767e-05,5.924896686337888e-05,-3.845289938908536e-06,5.177530329092406e-05
-4.179969982942566e-05,5.440575478132814e-05,1.995703996726661e-06,5.12990154675208e-05
-4.803762203664519e-05,3.70107518392615e-05,-1.5701800748502137e-06,5.728434553020634e-05
-4.4409487600205466e-05,2.0445357222342864e-05,-1.1085504411312286e-05,5.7190118241123855e-05
-3.405308962101117e-05,6.978902092669159e-06,-1.8523271137382835e-05,5.278385287965648e-05
-2.4961462258943357e-05,-4.209966846246971e-06,-2.1975147319608368e-05,5.392611274146475e-05
-2.174249129893724e-05,-1.385464292980032e-05,-2.0254074115655385e-05,5.798666461487301e-05
-2.1803500203532167e-05,-2.34197959798621e-05,-1.0711365575843956e-05,6.216169276740402e-05
-2.0479641534620896e-05,-2.4823748390190303e-05,-1.1247748261666857e-06,6.523448973894119e-05
-1.9960110876127146e-05,-1.9826031348202378e-05,5.492172476806445e-06,6.401877908501774e-05
-2.4594550268375315e-05,-1.7839351130533032e-05,7.030521828710334e-06,5.890157262911089e-05
-3.386981916264631e-05,-1.7258360458072275e-05,-1.829429493227508e-06,5.8071829698747024e-05
-4.1053059248952195e-05,-1.6100564437238063e-07,-1.4500829820462968e-05,6.0075421060901135e-05
-4.347916546976194e-05,3.0199020329746418e-05,-1.6131189113366418e-05,6.068909715395421e-05
-4.1244809835916385e-05,5.676286309608258e-05,-9.15481723495759e-06,6.060857413103804e-05
-3.665810436359607e-05,6.59506258671172e-05,-1.667903575253149e-06,6.329578900476918e-05
-3.4259865060448647e-05,5.742329085478559e-05,1.8438605593473767e-06,6.630513234995306e-05
-3.3877178793773055e-05,4.1015744500327855e-05,-4.0584893667983124e-07,6.742822733940557e-05
-3.1896288419375196e-05,2.1116760763106868e-05,-9.282600331061985e-06,6.688118446618319e-05
-2.5683808416943066e-05,4.0750776975073677e-07,-1.823118691390846e-05,6.509776721941307e-05
-1.5419613191625103e-05,-1.4660276065114886e-05,-2.034538920270279e-05,6.0558231780305505e-05
-8.603633432358038e-06,-2.068805042654276e-05,-1.8472470401320606e-05,5.729680196964182e-05
-9.922017852659337e-06,-2.2553364033228718e-05,-1.5196858839772176e-05,5.712063648388721e-05
-1.6260933989542536e-05,-2.211128048656974e-05,-1.401867120875977e-05,5.5152839195216075e-05
-2.215665881522e-05,-2.094158662657719e-05,-1.6582111129537225e-05,5.35030230821576e-05
-2.586568552942481e-05,-2.1984234990668483e-05,-1.8367962184129283e-05,5.2944622439099476e-05
-2.915241930168122e-05,-2.416906318103429e-05,-1.857596726040356e-05,5.0333204853814095e-05
-3.456067861407064e-05,-1.8869390260078944e-05,-1.900294591905549e-05,4.725696271634661e-05
-3.927209399989806e-05,-1.1288524319752469e-06,-1.52150823851116e-05,5.371220322558656e-05
-3.5972410842077807e-05,2.493628562660888e-05,-9.916066119330935e-06,6.276394560700282e-05
-3.158361869282089e-05,4.266627729521133e-05,-1.3458150533551816e-05,6.743154517607763e-05
-3.019077848875895e-05,4.942994564771652e-05,-2.0294683054089546e-05,7.121369708329439e-05
-2.5597308194846846e-05,5.907930972171016e-05,-2.2437705410993658e-05,7.490160351153463e-05
-1.6549878637306392e-05,7.72038838476874e-05,-2.661588223418221e-05,7.632648339495063e-05
-1.152155800809851e-05,8.160764264175668e-05,-3.9083926822058856e-05,7.782930333632976e-05
-1.6823243640828878e-05,6.903794565005228e-05,-5.206175410421565e-05,7.769963121972978e-05
-2.5748509870027192e-05,6.440761353587732e-05,-5.119428533362225e-05,7.192778866738081e-05
-3.186398680554703e-05,6.663621752522886e-05,-3.3192234695889056e-05,6.641853542532772e-05
-3.4297805541427806e-05,5.714517101296224e-05,-6.474590463767527e-06,6.486114580184221e-05
-3.442906017880887e-05,3.052030660910532e-05,1.8289352738065645e-05,6.357516394928098e-05
-3.2754331186879426e-05,6.704827683279291e-06,3.190806455677375e-05,5.581052755587734e-05
-2.9637552870553918e-05,8.736978088563774e-06,4.525509575614706e-05,4.985092891729437e-05
-2.499360743968282e-05,4.2692638089647517e-05,6.503389886347577e-05,4.909639756078832e-05
-1.9975448594777845e-05,8.275744767161086e-05,6.693521572742611e-05,5.000933742849156e-05
-1.650770900596399e-05,9.531390969641507e-05,3.7149573472561315e-05,5.109621270094067e-05
-1.638431967876386e-05,7.562843529740348e-05,-2.6764776066556806e-06,4.988559157936834e-05
-1.8496430129744112e-05,4.562630056170747e-05,-2.7315905754221603e-05,4.333996548666619e-05
-2.0717536244774237e-05,2.2460280888481066e-05,-3.296736758784391e-05,3.158229810651392e-05
-2.2640801034867764e-05,6.303763257164974e-06,-2.4558175937272608e-05,2.036771911662072e-05
-2.6570234695100226e-05,-6.743095127603738e-06,-1.1695346984197386e-05,1.2932770005136263e-05
-3.2470790756633505e-05,-1.2244150639162399e-05,-2.021662339757313e-06,9.683153621153906e-06
-3.417204425204545e-05,-8.364399036508985e-06,9.722901950226515e-07,1.087424152501626e-05
-3.220610960852355e-05,-6.75340743327979e-06,-5.1100309974572156e-06,1.6169791706488468e-05
-2.862530709535349e-05,-1.2919648725073785e-05,-1.1963927136093844e-05,2.3536917069577612e-05
-2.7529335056897253e-05,-1.885950223368127e-05,-1.4694002857140731e-05,2.8773518351954408e-05
-3.2444910175399855e-05,-2.6255765988025814e-05,-2.147690611309372e-05,3.612688306020573e-05
-3.716360515682027e-05,-2.7989051886834204e-05,-2.7996968128718436e-05,5.0946146075148135e-05
-3.619234848883934e-05,-1.6948646589298733e-05,-2.7153160772286355e-05,6.34707830613479e-05
-3.088628363911994e-05,2.421537601549062e-06,-2.001644861593377e-05,7.097662455635145e-05
-2.792730083456263e-05,2.6624989914125763e-05,-1.5576044461340643e-05,7.437473686877638e-05
-2.567026785982307e-05,4.114578405278735e-05,-1.8251615983899683e-05,7.721607835264876e-05
-2.3508309823228046e-05,4.3253719923086464e-05,-1.902312578749843e-05,7.912199362181127e-05
-2.196951572841499e-05,4.9649086577119306e-05,-9.715466148918495e-06,7.930326682981104e-05
-1.9755447283387184e-05,7.240105333039537e-05,4.380536665848922e-06,7.96908134361729e-05
-1.9202168914489448e-05,9.059008152689785e-05,1.547782085253857e-05,7.964411634020507e-05
-1.889596023829654e-05,8.327749674208462e-05,1.838031857914757e-05,8.017623622436076e-05
-1.6968737327260897e-05,5.733148645958863e-05,9.935635716828983e-06,7.998992805369198e-05
-1.3107444829074666e-05,3.465410554781556e-05,6.355811024150171e-07,7.883128273533657e-05
-1.0237425158265978e-05,2.778283851512242e-05,-3.2660991564625874e-06,7.734963583061472e-05
-9.44859129958786e-06,2.92508520942647e-05,-5.156482075108215e-06,7.586412539239973e-05
-1.0841663424798753e-05,2.6185784008703195e-05,-7.914817615528591e-06,7.222458225442097e-05
-1.3203763046476524e-05,1.5825706213945523e-05,-1.1229482879571151e-05,6.67613567202352e-05
-1.5786166841280647e-05,3.902766366081778e-06,-1.3310316717252135e-05,6.070285598980263e-05
-1.6320485883625224e-05,-3.1374386253446573e-06,-1.3533823221223429e-05,5.9017333114752546e-05
-1.6118368876050226e-05,-2.4529444431209413e-07,-1.2994923963560723e-05,5.9755377151304856e-05
-2.035839315794874e-05,9.076209607883357e-06,-1.2921766938234214e-05,5.4015858040656894e-05
-2.8341641154838726e-05,1.4099784493737388e-05,-1.4101333363214508e-05,4.1321953176520765e-05
-3.4733609936665744e-05,1.2188379514554981e-05,-1.1225848538742866e-05,3.420040957280435e-05
-3.391103382455185e-05,1.2891671758552548e-05,-4.025869202450849e-06,3.664992982521653e-05
-2.836137355188839e-05,1.9615139535744675e-05,1.1550780527613824e-06,4.074355092598125e-05
-2.3813327061361633e-05,3.095122883678414e-05,-1.1942194078073953e-06,4.5434939238475636e-05
-1.9183566109859385e-05,3.955966167268343e-05,-1.1447751603554934e-05,5.083717769593932e-05
-1.5591784176649526e-05,4.228856414556503e-05,-2.2439828171627596e-05,5.726057133870199e-05
-1.781090031727217e-05,4.673240619013086e-05,-2.3500839233747683e-05,6.0363865486579016e-05
-2.580932414275594e-05,4.427390013006516e-05,-1.615939982002601e-05,6.117551674833521e-05
-2.8754084269166924e-05,3.345795630593784e-05,-1.1198746506124735e-05,6.489607767434791e-05
-2.4770839445409365e-05,3.319403185741976e-05,-1.0748370186774991e-05,7.366149657173082e-05
-2.0926298020640388e-05,4.4525095290737227e-05,-9.613159818400163e-06,8.618929132353514e-05
-1.6914129446377046e-05,4.9240279622608796e-05,-5.069850431027589e-06,9.45523424888961e-05
-1.4639532309956849e-05,4.36400696344208e-05,1.0563140904196189e-06,9.447365300729871e-05
-1.4678008483315352e-05,4.578277366817929e-05,5.632473403238691e-06,8.948981849243864e-05
-1.7853555618785322e-05,4.7380217438330874e-05,5.088914349471452e-06,8.316449384437874e-05
-2.3884873371571302e-05,4.1224797314498574e-05,5.665031494572759e-06,7.863123755669221e-05
-3.000394644914195e-05,3.80807468900457e-05,1.2199682714708615e-05,8.067265298450366e-05
-3.463701796135865e-05,4.217890455038287e-05,1.6438016245956533e-05,8.457765216007829e-05
-3.7388959754025564e-05,4.5349504944169894e-05,8.782008990237955e-06,8.618048013886437e-05
-3.570632907212712e-05,4.415911826072261e-05,-3.845282208203571e-06,8.501750562572852e-05
-3.0106531994533725e-05,4.0452738176099956e-05,-1.0210732398263644e-05,8.116816024994478e-05
-2.4187265807995573e-05,3.311311957077123e-05,-7.351418389589526e-06,7.736765837762505e-05
-1.973990583792329e-05,2.432348810543772e-05,-4.26183987656259e-06,7.244044536491856e-05
-1.625257391424384e-05,1.7739754184731282e-05,-5.469274583447259e-06,6.831553764641285e-05
-1.3870493603462819e-05,1.4717486010340508e-05,-5.134574166731909e-06,6.592011050088331e-05
-1.4568833648809232e-05,1.021607022266835e-05,-2.4333980945812073e-06,6.159507756819949e-05
-1.883564800664317e-05,6.082377240090864e-06,-3.304371148260543e-06,5.3956326155457646e-05
-2.6102956326212734e-05,3.140790795441717e-06,-1.2284772310522385e-05,4.4480202632257715e-05
-3.729014133568853e-05,-2.2609569896303583e-06,-2.2341440853779204e-05,3.404930612305179e-05
-4.638319296645932e-05,-1.989460906770546e-05,-2.3766353479004465e-05,2.1363255655160174e-05
-4.660254853661172e-05,-3.352868588990532e-05,-2.19845005631214e-05,1.3568569556809962e-05
-4.2347866838099435e-05,-2.8320449928287417e-05,-2.6672832973417826e-05,1.8294749679625966e-05
-3.9910388295538723e-05,-1.7361193386022933e-05,-2.9927719879196957e-05,2.3010159566183574e-05
-3.887322964146733e-05,-3.2455950531584676e-06,-2.707323983486276e-05,2.073927862511482e-05
-3.6302175431046635e-05,1.7012300304486416e-05,-2.0854397007497028e-05,2.0870544176432304e-05
-3.3748074201866984e-05,3.2523865229450166e-05,-1.6348201825167052e-05,2.5676425138954073e-05
-3.138439205940813e-05,3.086847209488042e-05,-1.7692109395284206e-05,3.407436815905385e-05
-3.010045111295767e-05,2.2021909899194725e-05,-2.0361210772534832e-05,4.163958510616794e-05
-3.344860306242481e-05,1.206794968311442e-05,-2.054377182503231e-05,4.476301546674222e-05
-3.8563630369026214e-05,5.234837772150058e-06,-2.091815804305952e-05,4.790009916177951e-05
-3.709172233357094e-05,9.912423593050335e-06,-1.955866719072219e-05,5.600344593403861e-05
-3.0658848118036985e-05,2.432905057503376e-05,-1.4110544725554064e-05,6.805527664255351e-05
-2.544122799008619e-05,4.032958531752229e-05,-9.324908205599058e-06,7.605999417137355e-05
-2.5524328520987183e-05,3.7703797715948895e-05,-1.1999713024124503e-05,7.40836767363362e-05
-2.8847576686530374e-05,1.5549298041150905e-05,-1.9532151782186702e-05,6.533513806061819e-05
-2.752958425844554e-05,-9.081273674382828e-06,-2.24135656026192e-05,5.901575059397146e-05
-1.9905726730939932e-05,-2.4798377125989646e-05,-1.6780582882347517e-05,6.0841310187242925e-05
-1.162726493930677e-05,-3.201929939677939e-05,-1.0526293408474885e-05,6.762045813957229e-05
-7.960665243444964e-06,-3.348814425407909e-05,-1.4983363143983297e-05,7.239945261972025e-05
-9.540791324980091e-06,-2.7565285563468933e-05,-2.7906744435313158e-05,7.122750685084611e-05
-1.1547102985787205e-05,-5.290491571940947e-06,-3.63864928658586e-05,6.825876334914938e-05
-1.1122653631900903e-05,2.8397571441018954e-05,-3.015809488715604e-05,6.830790516687557e-05
-1.1637451279966626e-05,4.8969672207022086e-05,-1.6852227417984977e-05,6.78259675623849e-05
-1.4355588973558042e-05,4.8009718739194795e-05,-9.353181667393073e-06,6.241101800696924e-05
-1.781093487807084e-05,3.5804430808639154e-05,-6.213654160092119e-06,5.7253277191193774e-05
-1.9341237930348143e-05,2.305640919075813e-05,2.242903747173841e-07,5.768551636720076e-05
-2.0594754460034892e-05,1.4614261090173386e-05,1.1311959497106727e-05,6.100949030951597e-05
-2.3463813704438508e-05,1.2798051102436148e-05,1.1351292414474301e-05,6.560610927408561e-05
-2.6026300474768505e-05,1.4581711184291635e-05,-3.8077978388173506e-06,6.87655556248501e-05
-2.9188568078097887e-05,1.3218598724051844e-05,-1.5276091289706528e-05,6.168669642647728e-05
-3.2331015972886235e-05,1.0421665137982927e-05,-1.6200263416976668e-05,4.8849775339476764e-05
-3.0787879950366914e-05,1.473762677051127e-05,-1.4363707123266067e-05,4.5267421228345484e-05
-2.5304498194600455e-05,2.1876665414310992e-05,-1.3307062545209192e-05,5.115416934131645e-05
-2.3872356905485503e-05,2.833835969795473e-05,-1.053092819347512e-05,5.613742905552499e-05
-2.816484629875049e-05,3.720995664480142e-05,-4.211337454762543e-06,5.478204911923967e-05
-2.9947945222374983e-05,4.511421866482124e-05,5.609976597042987e-06,5.525062442757189e-05
-2.7828682505059987e-05,4.427583553479053e-05,1.0679884326236788e-05,6.226562254596502e-05
-2.7414211217546836e-05,3.36774937750306e-05,7.732802259852178e-06,6.95874696248211e-05
-2.871169454010669e-05,2.6264091502525844e-05,-2.3338543542195112e-07,7.015886512817815e-05
-2.7555724955163896e-05,3.244727849960327e-05,-6.29373744231998e-06,6.596407183678821e-05
-2.2897800590726547e-05,4.551367601379752e-05,-9.274592230212875e-06,6.140502955531701e-05
-1.9445751604507677e-05,5.665491335093975e-05,-1.0887323696806561e-05,5.821243757964112e-05
-2.124733873642981e-05,6.75488481647335e-05,-9.0391431513126e-06,5.894997593713924e-05
-2.4892093279049732e-05,8.168294880306348e-05,-2.472786263751914e-06,6.027633571648039e-05
-2.549579403421376e-05,8.335142047144473e-05,2.0601189589797286e-06,5.779137427452952e-05
-2.3910723029985093e-05,6.70385779812932e-05,1.8251150777359726e-06,5.456980943563394e-05
-2.5147719497908838e-05,5.0239999836776406e-05,3.5882703741663136e-06,5.5922955652931705e-05
-2.8923366699018516e-05,4.039323175675236e-05,6.630697498621885e-06,5.958186375210062e-05
-3.17617850669194e-05,3.419075073907152e-05,4.75315118819708e-06,6.21078725089319e-05
-3.309292878839187e-05,3.469094735919498e-05,-1.5645522353224806e-06,6.19667989667505e-05
-3.127472155028954e-05,3.9693153667030856e-05,-4.826274107472273e-06,6.0672962717944756e-05
-2.777519512164872e-05,4.512144369073212e-05,-5.898913059354527e-06,6.260196096263826e-05
-2.791578481264878e-05,4.837372762267478e-05,-7.313760306715267e-06,6.582429341506213e-05
-2.9968194212415256e-05,4.5501536078518257e-05,-1.0436165212013293e-05,6.856831896584481e-05
-3.1563085940433666e-05,3.867825580528006e-05,-1.578179217176512e-05,7.221085979836062e-05
-3.779048711294308e-05,3.386341631994583e-05,-1.920737122418359e-05,7.1524060331285e-05
-4.446353341336362e-05,2.7050004064221866e-05,-1.6200876416405663e-05,7.057513721520081e-05
-4.7852579882601276e-05,8.7957287178142e-06,-1.3207514712121338e-05,7.741097215330228e-05
-5.020795651944354e-05,-1.2512141438492108e-05,-1.521741614851635e-05,8.428932051174343e-05
-4.4979486119700596e-05,-2.1767724319943227e-05,-1.4014901353220921e-05,8.756641182117164e-05
-3.067098805331625e-05,-8.341472494066693e-06,-3.069931608479237e-06,8.95033881533891e-05
-1.87889309017919e-05,1.3689329534827266e-05,1.0510888387216255e-05,8.884935232345015e-05
-1.3240209227660671e-05,2.3911279640742578e-05,1.3210079487180337e-05,8.570653881179169e-05
-1.025464734993875e-05,2.436554859741591e-05,4.991379228158621e-06,8.017744403332472e-05
-8.18488115328364e-06,2.667698572622612e-05,5.234289233158052e-07,7.163308328017592e-05
-7.271854428836377e-06,2.5827152057900093e-05,-8.979213816928677e-07,5.2188555855536833e-05
-1.2927393072459381e-05,1.9061171769862995e-05,-5.410247922554845e-06,2.3705932107986882e-05
-2.080849662888795e-05,1.189020895253634e-05,-1.150699972640723e-05,6.428138021874474e-06
-2.511759703338612e-05,2.5272568109357962e-06,-1.6719262930564582e-05,1.2573052117659245e-05
-2.3830785721656866e-05,-7.204636858659796e-06,-2.0887602659058757e-05,2.7509113351698034e-05
-1.7770275007933378e-05,-1.4250268577598035e-05,-2.3316297301789746e-05,3.513838237267919e-05
-1.393681850458961e-05,-1.6021616829675622e-05,-2.3345446606981568e-05,3.9302860386669636e-05
-1.6631685866741464e-05,-8.963547770690639e-06,-2.156375558115542e-05,4.5412452891469e-05
-2.1889110939810053e-05,3.324861381770461e-06,-1.6252366549451835e-05,4.82737559650559e-05
-2.370616130065173e-05,1.0851575098058674e-05,-1.1407123565732036e-05,4.3563915824051946e-05
-2.4571501853642985e-05,9.936833521351218e-06,-1.3996357665746473e-05,3.321696931379847e-05
-2.9373870347626507e-05,1.0678244507289492e-05,-2.3451622837455943e-05,1.8046086552203633e-05
-3.7691013858420774e-05,2.446413054713048e-05,-2.799875983328093e-05,5.859187240275787e-06
-4.216899833409116e-05,3.768031092477031e-05,-2.272442725370638e-05,6.996392585278954e-06
-4.3398660636739805e-05,3.510994429234415e-05,-1.6688381947460584e-05,1.4433087017096113e-05
-4.4873359001940116e-05,2.6641391741577536e-05,-1.5089046428329311e-05,1.8577144146547653e-05
-4.456506940186955e-05,2.4119723093463108e-05,-1.3786007912131026e-05,2.2446285584010184e-05
-4.1909388528438285e-05,2.7957508791587315e-05,-9.06426885194378e-06,2.534120540076401e-05
-3.765541987377219e-05,3.476627898635343e-05,-3.577167433377326e-07,3.398287299205549e-05
-3.0290875656646676e-05,3.3448672184022143e-05,9.281930601900967e-07,4.130064553464763e-05
-1.9542814698070288e-05,1.9681452613440342e-05,-7.077881491568405e-06,3.947270306525752e-05
-1.2803303434338886e-05,6.891907105455175e-06,-1.3463960385706741e-05,4.1547002183506265e-05
-1.2347628398856614e-05,7.234649274323601e-06,-1.4103185094427317e-05,4.6767148887738585e-05
-1.3839546227245592e-05,1.2156724551459774e-05,-1.5214280210784636e-05,5.1720027840929106e-05
-1.5013710253697354e-05,1.034564138535643e-05,-2.023626620939467e-05,5.614419933408499e-05
-1.2914656508655753e-05,7.374052074737847e-06,-2.2975373212830164e-05,6.0058882809244096e-05
-1.1620607438089792e-05,1.3022601706325077e-05,-1.9667111700982787e-05,6.479932926595211e-05
-1.300965050177183e-05,2.5955820092349313e-05,-1.0526302503421903e-05,7.113238825695589e-05
-1.4096433005761355e-05,3.493724943837151e-05,-3.546400876075495e-06,7.976655615493655e-05
-1.651945240155328e-05,4.049235212733038e-05,-3.7444003737618914e-06,8.504747529514134e-05
-1.943768438650295e-05,5.0911323342006654e-05,-6.374283202603692e-06,8.282630005851388e-05
-2.032616248470731e-05,6.304564158199355e-05,-5.995384071866283e-06,7.828570960555226e-05
-2.2355065084411763e-05,6.512820982607082e-05,-5.6856156334106345e-06,7.675899541936815e-05
-2.9129612812539563e-05,5.433206388261169e-05,-1.0574726729828399e-05,7.841087790438905e-05
-3.612036380218342e-05,3.9116926927817985e-05,-2.0688181393779814e-05,7.928035483928397e-05
-3.7788497138535604e-05,3.161225322401151e-05,-3.254765397286974e-05,7.798136357450858e-05
-3.604827361414209e-05,3.910479063051753e-05,-4.186095611657947e-05,7.709387136856094e-05
-3.5939763620262966e-05,5.070874613011256e-05,-4.526403790805489e-05,7.563148392364383e-05
-3.965356154367328e-05,5.987746408209205e-05,-4.098689169040881e-05,7.125198317226022e-05
-4.105541665921919e-05,7.443754293490201e-05,-2.9893149985582568e-05,6.804202712373808e-05
-3.719366213772446e-05,8.826845441944897e-05,-1.6231142581091262e-05,6.896575359860435e-05
-3.290902895969339e-05,8.71176234795712e-05,-4.129942681174725e-06,7.073392771417275e-05
-2.3863376554800197e-05,7.121392263798043e-05,1.1258183576501324e-06,7.265293243108317e-05
-9.625315215089358e-06,4.897940016235225e-05,-2.0935510747221997e-06,7.32222615624778e-05
-1.1018970553777763e-06,2.502653660485521e-05,-7.56455256123445e-06,7.564888073829934e-05
-3.2175098567677196e-06,4.34714002039982e-06,-1.2203723599668592e-05,7.867944805184379e-05
-1.0183467566093896e-05,-8.060945219767746e-06,-1.3441079317999538e-05,7.762561290292069e-05
-1.661424721532967e-05,-1.3462962670018896e-05,-1.5501738744205795e-05,7.272135553648695e-05
-2.45990577241173e-05,-1.0694204320316203e-05,-1.4652076970378403e-05,6.786278390791267e-05
-3.6439148971112445e-05,-2.9541915864683688e-06,-8.866943062457722e-06,6.121606566011906e-05
-4.2624691559467465e-05,7.738887688901741e-06,-4.825958967558108e-06,5.1871964387828484e-05
-3.5545428545447066e-05,2.088636210828554e-05,-2.1354624095692998e-06,4.9133352149510756e-05
-2.1956253476673737e-05,2.8958071197848767e-05,-3.643528771135607e-06,5.116085594636388e-05
-1.438599792891182e-05,3.0185579817043617e-05,-6.439773642341606e-06,5.53767204110045e-05
-1.4140262464934494e-05,2.6686666387831792e-05,-6.43668727207114e-06,5.749184128944762e-05
-1.5107709259609692e-05,2.1595989892375655e-05,-4.201896445010789e-06,6.081265019020066e-05
-1.6333691746694967e-05,7.063151315378491e-06,-4.363116659078514e-06,6.901991582708433e-05
-1.854145921242889e-05,-1.3762853996013291e-05,-6.082968411647016e-06,7.918094343040138e-05
-1.868071012722794e-05,-2.0256286006770097e-05,-2.459746156091569e-06,8.802143565844744e-05
-1.7195743566844612e-05,-5.712622623832431e-06,4.051507403346477e-06,9.310094901593402e-05
-1.956430969585199e-05,8.214559784391895e-06,4.434614766068989e-06,9.230035357177258e-05
-2.472393862262834e-05,2.90390630652837e-06,-3.050286068173591e-06,8.803237869869918e-05
-3.0757957574678585e-05,-1.470585721108364e-05,-1.374345720250858e-05,8.403058018302545e-05
-3.541917249094695e-05,-2.7534288165043108e-05,-2.1923564418102615e-05,7.786248170305043e-05
-3.835434836219065e-05,-1.9926545064663514e-05,-2.1965897758491337e-05,7.105020631570369e-05
-4.078882921021432e-05,3.926064437109744e-06,-1.7857404600363225e-05,6.846121686976403e-05
-4.409842222230509e-05,1.761741987138521e-05,-1.8261616787640378e-05,6.974799907766283e-05
-4.625592191587202e-05,7.885989361966494e-06,-2.5186289349221624e-05,6.743334961356595e-05
-4.7373287088703364e-05,-1.0376203135820106e-05,-3.45490152540151e-05,6.218926864676178e-05
-4.8631431127432734e-05,-1.4287445083027706e-05,-3.482473039184697e-05,5.696027437807061e-05
-4.553632243187167e-05,6.306060640781652e-06,-2.491769009793643e-05,5.0853479478973895e-05
-4.170454849372618e-05,3.513451883918606e-05,-1.9472783606033772e-05,4.400165562401526e-05
-3.89734013879206e-05,4.481532596400939e-05,-1.6885343939065933e-05,3.902470780303702e-05
-3.276609641034156e-05,3.6088433262193576e-05,-2.530333631511894e-06,3.714565536938608e-05
-2.5808632926782593e-05,3.0053197406232357e-05,1.5365343642770313e-05,3.953182022087276e-05
-2.19884495891165e-05,3.098857996519655e-05,2.0256542484275997e-05,4.80236230941955e-05
-1.8733442630036734e-05,2.9895127227064222e-05,1.2497215720941313e-05,5.728991163778119e-05
-1.5200555026240181e-05,1.9009148672921583e-05,-3.770163630179013e-07,5.6894717999966815e-05
-1.529026667412836e-05,1.1332361282256898e-05,-6.731596840836573e-06,5.31532168679405e-05
-1.8026541511062533e-05,1.016338137560524e-05,-2.3445725219062297e-06,5.2836821851087734e-05
-2.021754698944278e-05,1.3445291187963448e-05,1.2170885383966379e-05,5.286554733174853e-05
-2.0446866983547807e-05,1.9699233234860003e-05,2.2687227101414464e-05,4.7093348257476464e-05
-1.9740018615266308e-05,2.4675377062521875e-05,1.667444666964002e-05,3.7288722523953766e-05
-2.0342735297163017e-05,2.458495509927161e-05,1.94271683540137e-06,2.7413096177042462e-05
-2.2905300284037367e-05,2.2007834559190087e-05,-1.04790551631595e-05,2.412920366623439e-05
-2.6793668439495377e-05,2.6736766812973656e-05,-1.6519086784683168e-05,2.9434588213916868e-05
-2.9578444809885696e-05,4.0926355723058805e-05,-1.7544871298014186e-05,3.225026011932641e-05
-2.9470429581124336e-05,5.719178807339631e-05,-1.3810442396788858e-05,2.947830580524169e-05
-2.8111679057474248e-05,5.906704245717265e-05,-1.0583640687400475e-05,2.709606269490905e-05
-2.8701440896838903e-05,4.75759879918769e-05,-1.4411614756681956e-05,3.262675818405114e-05
-2.9477694624802098e-05,4.115246338187717e-05,-2.3235532353282906e-05,4.4768523366656154e-05
-2.4924771423684433e-05,4.699065175373107e-05,-2.5857336368062533e-05,5.836933996761218e-05
-1.7163940356113017e-05,4.6731860493309796e-05,-2.066017077595461e-05,6.80927696521394e-05
-1.7510254110675305e-05,3.464997644186951e-05,-1.4950216609577183e-05,7.444181392202154e-05
-2.7912796213058755e-05,2.6481908207642846e-05,-1.2749305824399926e-05,7.580324745504186e-05
-3.4929922549054027e-05,2.922902422142215e-05,-1.1546708265086636e-05,7.00415694154799e-05
-3.294356429250911e-05,3.0453036742983386e-05,-1.3623321137856692e-05,6.477954593719915e-05
-3.073608968406916e-05,2.963997030747123e-05,-2.2573873138753697e-05,6.985442450968549e-05
-3.257401112932712e-05,2.9455310141202062e-05,-3.0840918043395504e-05,7.728607306489721e-05
-3.403247319511138e-05,2.669774039532058e-05,-2.9247354177641682e-05,8.178751158993691e-05
-2.7166985091753304e-05,2.1390776964835823e-05,-1.7700007447274402e-05,8.54009049362503e-05
-1.545163286209572e-05,1.6204539861064404e-05,-1.0435307558509521e-05,8.831201557768509e-05
-9.135294931184035e-06,1.6776662960182875e-05,-1.3009179383516312e-05,9.053691610461101e-05
-1.0552568710409105e-05,2.4117505745380186e-05,-1.2533240806078538e-05,8.883242844603956e-05
-1.3339376891963184e-05,3.652939267340116e-05,-3.892781933245715e-06,8.114925731206313e-05
-1.27993089336087e-05,4.887526301899925e-05,5.049036190030165e-06,5.726523886551149e-05
-1.30330790852895e-05,5.483507629833184e-05,6.6697220972855575e-06,2.669490822881926e-05
-1.6130690710269846e-05,5.154452082933858e-05,1.8138802033718093e-06,1.7329959518974647e-05
-2.0214358301018365e-05,4.8101861466420814e-05,-1.569797291267605e-06,3.1176983611658216e-05
-2.619066617626231e-05,4.7718272981001064e-05,3.822369620820609e-08,4.8961715947370976e-05
-3.4633823815966025e-05,4.663115760195069e-05,2.395674300714745e-06,5.7012352044694126e-05
-3.861458753817715e-05,4.1792354750214145e-05,-5.020464186600293e-07,5.385472468333319e-05
-3.395455132704228e-05,3.255132105550729e-05,-5.122301445226185e-06,4.657080353354104e-05
-2.6519222956267186e-05,1.9587372662499547e-05,-4.230379545333562e-06,4.266398900654167e-05
-2.4416156520601362e-05,5.455114660435356e-06,-3.5149483323948516e-07,4.566750430967659e-05
-2.717484130698722e-05,-1.3977291928313207e-06,3.5008956729143392e-06,5.3784289775649086e-05
-3.032794666069094e-05,5.346400484995684e-06,6.256539109017467e-06,6.278041109908372e-05
-3.164819645462558e-05,1.6356221749447286e-05,4.18107993027661e-06,6.947103975107893e-05
-3.085099524469115e-05,1.9185034034308046e-05,-3.522807446643128e-06,6.982918421272188e-05
-2.7253530788584612e-05,2.0124056391068734e-05,-1.1121945135528222e-05,6.514990673167631e-05
-2.3574411898152903e-05,2.6490946765989065e-05,-1.4526360246236436e-05,6.311619654297829e-05
-2.2303249352262355e-05,3.461851520114578e-05,-1.4419797480513807e-05,6.598370237043127e-05
-2.2123593225842342e-05,3.902566459146328e-05,-1.5168411664490122e-05,7.288130291271955e-05
-2.0211145965731703e-05,3.787820241996087e-05,-1.782590516086202e-05,7.547825225628912e-05
-1.44016339618247e-05,3.1886818760540336e-05,-2.1570160242845304e-05,6.573244900209829e-05
-7.600153367093299e-06,2.3788916223566048e-05,-2.5150113287963904e-05,5.0565984565764666e-05
-1.4147885849524755e-06,1.1716914741555229e-05,-2.6640755095286295e-05,3.740332613233477e-05
1.5544628695352003e-06,-2.592222699604463e-06,-2.343880078115035e-05,3.561839912435971e-05
-1.772291966517514e-06,-7.649640792806167e-06,-1.2285988304938655e-05,4.10621432820335e-05
-2.626396053528879e-06,7.295768227777444e-06,-4.329577222961234e-06,4.6564065996790305e-05
1.3538544862967683e-07,3.685553019749932e-05,-1.6027472611312987e-06,5.4389212891692296e-05
-2.40169424614578e-06,5.8862635341938585e-05,2.4340611162187997e-06,6.191908323671669e-05
-8.190647349692881e-06,6.598767504328862e-05,7.911055945442058e-06,6.806907913414761e-05
-1.3696952009922825e-05,6.484924961114302e-05,1.0168759217776824e-05,6.696827040286735e-05
-1.7128544641309418e-05,6.364948058035225e-05,4.8472702474100515e-06,6.298868538578972e-05
-2.2613259716308676e-05,6.332505290629342e-05,-4.6632580961158965e-06,6.354798097163439e-05
-3.1621515518054366e-05,5.721725392504595e-05,-1.2501315723056905e-05,6.628308619838208e-05
-3.8761321775382385e-05,4.373388583189808e-05,-1.6114496247610077e-05,6.682606181129813e-05
-3.898954309988767e-05,2.585555375844706e-05,-1.9395245544728823e-05,6.624151865253225e-05
-3.42852326866705e-05,7.77857712819241e-06,-2.5672774427221157e-05,6.71121888444759e-05
-2.783845593512524e-05,-5.044013960286975e-06,-3.3832548069767654e-05,6.789682811358944e-05
