-1.631409213587176e-05,-0.000145337384310551,1.3072709407424554e-05,7.738668500678614e-05
-2.4442342692054808e-05,-0.00014529403415508568,2.387704989814665e-05,7.46403238736093e-05
-3.055967317777686e-05,-0.00016846902144607157,2.8409564038156532e-05,6.960221799090505e-05
-3.601342177717015e-05,-9.808020695345476e-05,3.1049254175741225e-05,6.707101420033723e-05
-4.4941247324459255e-05,4.73290856461972e-05,2.8717620807583444e-05,6.405793101293966e-05
-5.588461135630496e-05,0.00014015796477906406,2.0826098989346065e-05,6.242987001314759e-05
-5.881540710106492e-05,0.0001884367666207254,1.4298910173238255e-05,5.7391062000533566e-05
-5.733101352234371e-05,0.0003158851759508252,1.9960032659582794e-05,5.100761336507276e-05
-5.41247682122048e-05,0.0005175156984478235,3.650226426543668e-05,5.0216120143886656e-05
-4.6988210669951513e-05,0.0006825752789154649,5.5093059927457944e-05,5.529175541596487e-05
-4.0292885387316346e-05,0.0007455612649209797,6.237214984139428e-05,6.118013698142022e-05
-3.789954280364327e-05,0.0006809098995290697,4.750403968500905e-05,5.9421323385322466e-05
-3.5416473110672086e-05,0.0005213479162193835,2.0929495804011822e-05,5.3535648476099595e-05
-2.8190273951622657e-05,0.0003247183340135962,-1.3112211263432982e-06,5.0773360271705315e-05
-1.8925531549029984e-05,0.00012393452925607562,-1.4120699233899359e-05,5.164860704098828e-05
-9.194879567075986e-06,-7.053466106299311e-05,-2.4653472792124376e-05,5.278790195006877e-05
-3.256439867982408e-06,-0.0002308262774022296,-3.8308797229547054e-05,5.423036418505944e-05
-7.080413979565492e-06,-0.0003471440286375582,-5.671178951160982e-05,5.379028516472317e-05
-1.6695757949491963e-05,-0.0004145046113990247,-7.55523142288439e-05,5.1133043598383665e-05
-2.1044919776613824e-05,-0.00040613263263367116,-8.704166248207912e-05,4.914070086670108e-05
-1.797865843400359e-05,-0.00033416139194741845,-8.611602970631793e-05,4.858039756072685e-05
-1.180466188088758e-05,-0.00026954186614602804,-7.475547317881137e-05,4.9967366066994146e-05
-7.071439995343098e-06,-0.0002586525515653193,-6.391637725755572e-05,5.331932698027231e-05
-8.869642442732584e-06,-0.0002436799550196156,-6.452156230807304e-05,5.6555825722170994e-05
-1.4419123544939794e-05,-0.00016786226478870958,-6.528169615194201e-05,5.802095984108746e-05
-2.178125942009501e-05,-7.886101957410574e-05,-6.192758883116767e-05,5.600691292784177e-05
-3.338437818456441e-05,-1.6869606042746454e-05,-6.819060945417732e-05,5.33003949385602e-05
-4.5029923057882115e-05,3.7856007111258805e-05,-8.695149153936654e-05,5.458952728076838e-05
-5.4539883421966806e-05,8.863651601132005e-05,-9.143880743067712e-05,5.427533687907271e-05
-5.7108860346488655e-05,0.00010012996062869206,-7.651722989976406e-05,5.388015051721595e-05
-5.664649506798014e-05,4.6508252125931904e-05,-5.807858542539179e-05,5.6738881539786234e-05
-5.660681563313119e-05,-1.4812268091191072e-05,-3.695378472912125e-05,6.053698598407209e-05
-5.556063842959702e-05,-1.9742716176551767e-05,-1.761140265443828e-05,6.300251698121428e-05
-5.744599548052065e-05,4.364129563327879e-05,-5.0789608962986676e-08,6.301017856458202e-05
-5.9196587244514376e-05,0.00011908806482097134,1.8059548892779276e-05,5.9957550547551364e-05
-5.410146331996657e-05,0.00013295903045218438,3.377379835001193e-05,5.822575985803269e-05
-3.963940616813488e-05,9.795764344744384e-05,4.517964043770917e-05,6.10523420618847e-05
-2.0515257347142324e-05,6.296140782069415e-05,5.557639815378934e-05,6.731862231390551e-05
-2.8765887236659182e-06,6.519991438835859e-05,5.854589835507795e-05,7.338378054555506e-05
1.0834667591552716e-05,0.00011825434194179252,5.434201011667028e-05,7.495484896935523e-05
2.055143158941064e-05,0.00018732165335677564,4.8361245717387646e-05,7.551623275503516e-05
2.7414769647293724e-05,0.00021083888714201748,4.0153474401449785e-05,7.670602644793689e-05
3.550739711499773e-05,0.00017545702576171607,2.781149851216469e-05,7.960168295539916e-05
4.378415542305447e-05,0.00010950193245662376,1.3050821507931687e-05,8.265836368082091e-05
4.4080814404878765e-05,4.456678288988769e-05,-6.400231313818949e-07,8.143276500049978e-05
3.360830669407733e-05,-1.8012359532804112e-06,-9.224657333106734e-06,7.672188803553581e-05
1.7260877939406782e-05,-3.2726238714531064e-05,-1.0300086614734028e-05,7.017748430371284e-05
1.4746835859114071e-06,-5.727127427235246e-05,-5.176039394427789e-06,6.326282891677693e-05
-1.15493576231529e-05,-7.242363062687218e-05,2.3596801383973798e-06,5.865756611456163e-05
-2.213642255810555e-05,-6.649807619396597e-05,9.535769095236901e-06,5.625191988656297e-05
-2.3257709472090937e-05,-4.924113454762846e-05,1.5423887816723436e-05,5.671012695529498e-05
-1.6537982446607202e-05,-3.958907109335996e-05,1.5766267097205855e-05,6.022166053298861e-05
-1.2523736586445011e-05,-2.9448217901517637e-05,9.109630809689406e-06,6.386481982190162e-05
-1.2955969395989086e-05,-4.649094262276776e-05,-2.5109509351750603e-06,6.433843373088166e-05
-1.7802842194214463e-05,-0.00016372496611438692,-1.2121769941586535e-05,6.249386206036434e-05
-2.7594029234023765e-05,-0.0002571773366071284,-1.190945567941526e-05,5.7693931012181565e-05
-3.941126124118455e-05,-0.00019339844584465027,-1.097585482057184e-05,5.081169001641683e-05
-4.835254731005989e-05,-3.45219777955208e-05,-1.9996454284409992e-05,4.600571992341429e-05
-4.915874160360545e-05,0.0001506960834376514,-2.912596391979605e-05,4.247616379871033e-05
-4.958236968377605e-05,0.00028514384757727385,-3.346810262883082e-05,4.079219070263207e-05
-5.1370603614486754e-05,0.00029759909375570714,-2.9785060178255662e-05,4.1286828491138294e-05
-4.8584373871563e-05,0.0002338599879294634,-2.0100264009670354e-05,4.151572284172289e-05
-4.5283155486686155e-05,0.00022279178665485233,-1.0521528565732297e-05,3.9338538044830784e-05
-3.945767821278423e-05,0.00029553231433965266,5.795708943878708e-07,4.0764451114227995e-05
-3.120763722108677e-05,0.0003574202419258654,1.6301517462125048e-05,4.654978692997247e-05
-2.405767372692935e-05,0.00030972680542618036,2.1266660041874275e-05,5.112963481224142e-05
-2.143907840945758e-05,0.00015518673171754926,4.972002443537349e-06,5.1364637329243124e-05
-2.3041200620355085e-05,-3.762302367249504e-05,-1.773999974830076e-05,5.248122397460975e-05
-2.5844959964160807e-05,-0.00014363288937602192,-3.2323259802069515e-05,5.691811384167522e-05
-3.0146262361085974e-05,-5.475590660353191e-05,-3.711805402417667e-05,6.20440041529946e-05
-3.6099416320212185e-05,0.00013561578816734254,-3.552977796061896e-05,6.494358967756853e-05
-4.1888837586157024e-05,0.0001891578867798671,-3.0463044822681695e-05,6.324063724605367e-05
-4.363641346571967e-05,3.5467011912260205e-05,-2.506748387531843e-05,6.127386586740613e-05
-3.8994727219687775e-05,-0.00015089669614098966,-1.5852163414820097e-05,6.226990080904216e-05
-3.3343818358844146e-05,-0.00023263681214302778,-4.080761300429003e-06,6.490296800620854e-05
-3.523369741742499e-05,-0.00024466903414577246,-5.520106469703023e-07,6.378460966516286e-05
-4.2500927520450205e-05,-0.00022190340678207576,-1.5208802324195858e-05,5.7766734244069085e-05
-4.632273703464307e-05,-0.0001293335371883586,-3.4133838198613375e-05,5.088240504846908e-05
-4.352657197159715e-05,-1.4274904060584959e-05,-3.820439815171994e-05,5.299006079440005e-05
-3.645327524282038e-05,4.529590569291031e-07,-3.015883339685388e-05,6.013718666508794e-05
-2.954010597022716e-05,-7.206679583759978e-05,-2.02787559828721e-05,6.380543345585465e-05
-1.9441169570200145e-05,-8.763013465795666e-05,-2.1080670194351114e-05,6.724365812260658e-05
-1.0659849976946134e-05,-8.724289364181459e-05,-3.992778147221543e-05,7.100266520865262e-05
-7.270092737599043e-06,-0.00017526662850286812,-5.402448368840851e-05,6.857922562630847e-05
-4.658577381633222e-06,-0.0003010586369782686,-5.067755773779936e-05,6.276615022215992e-05
-1.1013737093890086e-05,-0.00035654992097988725,-3.662012386485003e-05,6.113752169767395e-05
-2.136239163519349e-05,-0.0002846297575160861,-2.035681245615706e-05,5.9722515288740396e-05
-2.7625785151030868e-05,-0.00012936799612361938,-7.158278549468378e-06,5.8942361647496e-05
-2.7207497623749077e-05,4.914921737508848e-05,8.796582733339164e-06,5.8747402363223955e-05
-2.2150999939185567e-05,0.00020496457000263035,1.7487296645413153e-05,5.549714478547685e-05
-2.085820415231865e-05,0.00028502775239758193,9.020512152346782e-06,4.896277823718265e-05
-2.5566594558767974e-05,0.0002651643590070307,-7.37882965040626e-06,4.4810338295064867e-05
-2.9793396606692113e-05,0.00016093379235826433,-1.5245977010636125e-05,4.742745295516215e-05
-3.164101144648157e-05,4.360664388514124e-05,-1.0048366675619036e-05,5.3917687182547525e-05
-3.619262861320749e-05,-1.6130337826325558e-05,-1.9212416191294324e-06,5.8607201935956255e-05
-4.2997009586542845e-05,3.4341219361522235e-06,4.37262343666589e-07,5.8392284699948505e-05
-4.4634562073042616e-05,5.7043900596909225e-05,-5.120261448610108e-06,5.502357453224249e-05
-3.71951209672261e-05,7.605795690324157e-05,-1.2489338587329257e-05,5.336209505912848e-05
-2.572029006842058e-05,5.3134022891754285e-05,-1.2706082998192869e-05,5.521623097592965e-05
-1.6220377801801078e-05,3.75653944502119e-05,-4.354596512712305e-06,5.785071334685199e-05
-1.60031886480283e-05,6.729552114848047e-05,5.8609725783753674e-06,5.859475277247839e-05
-2.6787320166477002e-05,0.00013649208995047957,1.039101516653318e-05,5.711728590540588e-05
-3.821382415480912e-05,0.0001985111302928999,5.910813797527226e-06,5.509286711458117e-05
-3.9698472392046824e-05,0.00019084457017015666,1.0432045201014262e-06,5.414777115220204e-05
-3.677538188640028e-05,0.0001223569706780836,1.4529703094012802e-06,5.540070924325846e-05
-3.213240779587068e-05,5.193402466829866e-05,2.6738880478660576e-06,5.613402390736155e-05
-2.3820150090614334e-05,1.7587988622835837e-05,6.820625912951073e-06,6.0272777773207054e-05
-1.3865264008927625e-05,2.1399524484877475e-05,1.4419871149584651e-05,6.991533155087382e-05
-6.117975772212958e-06,5.198284998186864e-05,2.4017272153287195e-05,8.022450492717326e-05
-5.3556050261249766e-06,7.142996037146077e-05,2.9413880838546902e-05,8.42497029225342e-05
-9.45948158914689e-06,3.7075493310112506e-05,3.08102389681153e-05,8.015695493668318e-05
-1.5122170225367881e-05,-3.181281135766767e-05,3.143922731396742e-05,7.344624464167282e-05
-1.7601278159418143e-05,-7.448573887813836e-05,2.321387000847608e-05,6.795618537580594e-05
-1.6492482245666906e-05,-7.325055048568174e-05,8.73433964443393e-06,6.334372301353142e-05
-2.149917600036133e-05,-4.5772983867209405e-05,-1.4046726164451684e-06,6.0125847085146233e-05
-2.760070674412418e-05,-4.908560185867827e-06,-6.553651019203244e-06,5.9838952438440174e-05
-2.5944498702301644e-05,4.0764189179753885e-05,-1.3659631804330274e-05,5.891442924621515e-05
-2.2869166059535928e-05,7.160101813497022e-05,-2.103211772919167e-05,5.719590626540594e-05
-2.459116149111651e-05,8.838895882945508e-05,-2.2214688215171918e-05,5.6416960433125496e-05
-2.8233522243681364e-05,0.00010667335300240666,-1.8049082427751273e-05,5.397168206400238e-05
-3.088785888394341e-05,0.00012769747991114855,-1.6647045413265005e-05,5.073587817605585e-05
-2.9459661163855344e-05,0.0001206359374918975,-2.373228380747605e-05,5.084884833195247e-05
-2.5775023459573276e-05,7.162003021221608e-05,-3.189257040503435e-05,5.377351408242248e-05
-2.45852061198093e-05,9.982234587369021e-06,-3.333349741296843e-05,5.525895539904013e-05
-2.604823930596467e-05,-2.7288917408441193e-05,-3.0695213354192674e-05,5.4007752623874694e-05
-2.9322129194042645e-05,-2.55513714364497e-05,-3.1355513783637434e-05,5.150379001861438e-05
-3.351244595251046e-05,-2.9516547783714486e-06,-3.574959555407986e-05,5.1352464652154595e-05
-3.7397127016447484e-05,1.0355251106375363e-05,-3.732846016646363e-05,5.565862011280842e-05
-3.9759153878549114e-05,2.8727820335916476e-06,-3.5735891287913546e-05,5.917228918406181e-05
-3.9988441130844876e-05,-2.7080855034000706e-06,-3.752740303752944e-05,5.863113619852811e-05
-3.950522295781411e-05,3.865340659103822e-06,-4.095714393770322e-05,5.750256241299212e-05
-4.156202339800075e-05,6.42924896965269e-06,-4.0270933823194355e-05,5.79368497710675e-05
-4.4055832404410467e-05,-6.385852429957595e-06,-3.843811646220274e-05,5.739049811381847e-05
-4.433522917679511e-05,-1.0134777767234482e-05,-3.9742553781252354e-05,5.5909709772095084e-05
-4.554361294140108e-05,8.065011570579372e-06,-4.012714998680167e-05,5.306894672685303e-05
-4.8089390475070104e-05,2.302839857293293e-05,-3.864494283334352e-05,4.7804485802771524e-05
-4.628133319783956e-05,1.4093243407842238e-05,-3.221357110305689e-05,4.610014730133116e-05
-4.527883720584214e-05,-5.373219210014213e-06,-2.0735735233756714e-05,4.974583862349391e-05
-4.591968172462657e-05,-1.5884146705502644e-05,-1.4550742889696267e-05,5.0831666158046573e-05
-4.132360118092038e-05,-6.865528803245979e-07,-1.9071494534728117e-05,5.004537888453342e-05
-3.325767829664983e-05,1.9745957615668885e-05,-1.7608188500162214e-05,5.243310079094954e-05
-2.655573007359635e-05,7.1415329330193345e-06,3.309177827759413e-06,5.8026944316225126e-05
-1.95794491446577e-05,-4.172335684415884e-05,2.212071376561653e-05,6.354871584335342e-05
-1.3690212654182687e-05,-9.781505650607869e-05,1.6020869225030765e-05,6.577657768502831e-05
-1.1310181434964761e-05,-8.595045073889196e-05,-1.2053986210958101e-05,6.556246080435812e-05
-1.434558998880675e-05,2.3063807020662352e-05,-3.3658408938208595e-05,6.400539132300764e-05
-2.1176667360123247e-05,0.00013039905752521008,-3.4653952752705663e-05,6.138988101156428e-05
-2.9126675144652836e-05,0.00016977585619315505,-2.404085716989357e-05,5.956688983133063e-05
-3.6648900277214125e-05,0.00019989423162769526,-1.2291979146539234e-05,6.122446939116344e-05
-4.082103259861469e-05,0.0002666297077666968,-3.936612301913556e-06,6.133503484306857e-05
-4.196476947981864e-05,0.00028780612046830356,-9.041945304488763e-06,5.571704969042912e-05
-4.010085467598401e-05,0.00020228790526743978,-2.5142064259853214e-05,5.193824108573608e-05
-3.499031299725175e-05,5.947868703515269e-05,-2.659101301105693e-05,5.576290641329251e-05
-2.4309492800966837e-05,-0.00010530962754273787,-3.022420969500672e-06,6.197263428475708e-05
-1.1337517207721248e-05,-0.00027492851950228214,2.2044092474970967e-05,6.399297853931785e-05
-2.6377836093161022e-06,-0.00037259634700603783,2.3934264390845783e-05,6.263444811338559e-05
-2.2872632143844385e-07,-0.0003348188183736056,5.887158749828814e-06,5.8622950746212155e-05
3.0125246297529884e-08,-0.0001912979205371812,-1.4190334695740603e-05,5.2501927712000906e-05
-1.8720035086516873e-06,-1.1100447409262415e-05,-1.924429670907557e-05,5.03387491335161e-05
-7.38066091798828e-06,0.000157396454596892,-9.312167094321921e-06,4.951445953338407e-05
-1.4804876627749763e-05,0.0002807729470077902,1.8819929437086103e-06,4.782694668392651e-05
-1.910659011628013e-05,0.00031544105149805546,2.745732444964233e-06,4.690348941949196e-05
-1.829890788940247e-05,0.00027122764731757343,-2.5757115054148016e-06,4.9334848881699145e-05
-1.6599198715994135e-05,0.0002335931349080056,1.0194177093580947e-06,5.6396747822873294e-05
-1.0799987649079412e-05,0.00023514378699474037,2.0827434127568267e-05,6.430537905544043e-05
-2.8616639156098245e-06,0.00022764965251553804,3.901903619407676e-05,6.92157045705244e-05
-5.1433250547461284e-08,0.00019153083849232644,4.269056807970628e-05,7.031107816146687e-05
-1.7435112340535852e-06,0.0001403955538989976,3.962877599406056e-05,7.058956543914974e-05
-6.718664280924713e-06,9.561119804857299e-05,3.669076249934733e-05,7.038969488348812e-05
-1.3241397027741186e-05,4.161558172199875e-05,3.1603740353602916e-05,6.741940160281956e-05
-1.9657891243696213e-05,6.563670353898488e-07,2.2434318452724256e-05,5.821059312438592e-05
-2.303660767211113e-05,-1.9931896531488746e-05,8.681256076670252e-06,5.177680941415019e-05
-2.5644303605076857e-05,-6.296850915532559e-05,-4.853407062910264e-06,5.162634261068888e-05
-2.7618401873041876e-05,-0.00011116211680928245,-6.794361070205923e-06,5.327021790435538e-05
-2.635703276610002e-05,-0.00012678882922045887,3.508941745167249e-06,5.2881339797750115e-05
-2.2513404474011622e-05,-0.0001271179353352636,1.4008949619892519e-05,5.4434334742836654e-05
-1.6686048184055835e-05,-0.00016286864411085844,1.4943945643608458e-05,5.901853728573769e-05
-1.135202001023572e-05,-0.00023864548711571842,1.073532439477276e-05,6.382786523317918e-05
-6.730288532708073e-06,-0.0002906600129790604,8.111747774819378e-06,6.674266478512436e-05
-3.661606115201721e-06,-0.00025670306058600545,8.864462870405987e-06,6.426491745514795e-05
-7.944080607558135e-06,-0.00016228467575274408,6.664285137958359e-06,6.175722228363156e-05
-2.023657361860387e-05,-7.903393270680681e-05,-3.3215933399333153e-06,6.202175427461043e-05
-2.9897626518504694e-05,-4.1982078982982785e-05,-1.5930107110762037e-05,6.19795173406601e-05
-3.1902905902825296e-05,-1.8523624021327123e-05,-2.5921266569639556e-05,5.86177920922637e-05
-2.920253245974891e-05,4.59982875327114e-05,-3.469253715593368e-05,5.2695042541017756e-05
-2.9191167413955554e-05,0.00014792611182201654,-4.21271615778096e-05,4.554683982860297e-05
-3.120398469036445e-05,0.0002066329470835626,-4.573152182274498e-05,4.087313209311105e-05
-3.106164149357937e-05,0.00017789036792237312,-4.496048131841235e-05,4.2559229768812656e-05
-3.2913285394897684e-05,0.00013305337051860988,-4.5003955165157095e-05,5.0180293328594416e-05
-3.695436680573039e-05,0.0001309492508880794,-4.960637670592405e-05,5.198982034926303e-05
-3.6970381188439205e-05,0.00013526706607080996,-5.064757715445012e-05,5.0065311370417476e-05
-3.443632522248663e-05,0.00012259693176019937,-4.7968551371013746e-05,5.429608791018836e-05
-3.6284949601395056e-05,0.00013139382645022124,-4.071817602380179e-05,5.949384285486303e-05
-3.938083682442084e-05,0.00018712939345277846,-3.047974496439565e-05,5.666110519086942e-05
-3.951498001697473e-05,0.00022892870765645057,-2.3674901967751794e-05,5.312477514962666e-05
-3.69676090485882e-05,0.00021046510664746165,-2.1044403183623217e-05,5.373874955694191e-05
-3.427992851356976e-05,0.00015471212100237608,-2.4349765226361342e-05,5.358439011615701e-05
-3.660399670479819e-05,8.36690524010919e-05,-2.996646799147129e-05,5.317389877745882e-05
-4.398781675263308e-05,-1.2331212928984314e-05,-3.717900472111069e-05,5.1873001211788505e-05
-4.8700254410505295e-05,-8.758225158089772e-05,-4.3813510274048895e-05,4.880965207121335e-05
-4.74084954475984e-05,-7.97436005086638e-05,-4.825104770134203e-05,4.438448013388552e-05
-4.5820779632776976e-05,-5.16096297360491e-05,-4.825620635529049e-05,4.290588549338281e-05
-4.494289169088006e-05,-8.397265628445894e-05,-4.171665204921737e-05,4.726411498268135e-05
-4.172607805230655e-05,-0.00015858322149142623,-3.071351966354996e-05,5.103792136651464e-05
-3.912363536073826e-05,-0.0002131897199433297,-1.8480672224541195e-05,4.895131860394031e-05
-4.13267407566309e-05,-0.00023563836293760687,-1.0237689821224194e-05,4.572499165078625e-05
-4.6000772272236645e-05,-0.00023900378437247127,-1.5233717931550927e-05,4.536643245955929e-05
-4.630583862308413e-05,-0.00020746540394611657,-2.983747071994003e-05,4.716745388577692e-05
-3.930025559384376e-05,-0.00013475226296577603,-3.659726644400507e-05,4.902280124952085e-05
-2.6767478630063124e-05,-9.248629794456065e-05,-3.455620026215911e-05,4.8484147555427626e-05
-1.0654745892679784e-05,-0.00012262804375495762,-3.0077599149080925e-05,4.690440255217254e-05
1.3613697547043557e-06,-0.00016169204900506884,-2.6940129828290083e-05,4.692975926445797e-05
1.885029405457317e-06,-0.00014484769781120121,-2.841752393578645e-05,4.778708898811601e-05
-3.6335236472950783e-06,-6.755541835445911e-05,-2.9987631933181547e-05,4.756610360345803e-05
-7.410894795611966e-06,3.186046888004057e-05,-2.9650935175595805e-05,4.4713218812830746e-05
-1.2981678082724102e-05,0.000123928562970832,-2.8201384338899516e-05,4.2718333133962005e-05
-2.3612958102603443e-05,0.00017530102923046798,-2.6425965188536793e-05,4.1702514863573015e-05
-2.941703496617265e-05,0.00017679294978734106,-2.991637848026585e-05,4.294214159017429e-05
-3.1855335691943765e-05,0.00020784720254596323,-3.253380418755114e-05,4.381868347991258e-05
-3.3959287975449115e-05,0.00029023963725194335,-2.0444358597160317e-05,4.44870674982667e-05
-3.2005831599235535e-05,0.00032106961589306593,1.2705195331363939e-05,4.476446702028625e-05
-2.706662598939147e-05,0.0002262366033392027,5.54680846107658e-05,4.847876334679313e-05
-1.4482639016932808e-05,7.67407109378837e-05,7.921145879663527e-05,6.031636439729482e-05
-1.0226823405901087e-06,2.1359910533647053e-05,7.004637154750526e-05,7.120295049389824e-05
4.3776626625913195e-06,7.713512604823336e-05,4.514148531598039e-05,7.841943443054333e-05
5.008433163311565e-06,0.00011962330609094352,2.367548950132914e-05,8.173780952347443e-05
3.0626956686319318e-06,5.135587707627565e-05,1.2326897376624402e-05,8.012088801478967e-05
-1.3027255363340373e-06,-6.770990876248106e-05,9.35984371608356e-06,7.4463700002525e-05
-4.968570465280209e-06,-7.936447946121916e-05,1.5034774150990415e-05,7.110272417776287e-05
-9.210632015310694e-06,3.7188827263889834e-05,3.0365472412086092e-05,6.77399875712581e-05
-1.5349345630966127e-05,0.00013441038026940078,4.6980014303699136e-05,6.041169399395585e-05
-2.1099182049511e-05,0.00012058318679919466,5.069181861472316e-05,5.15172905579675e-05
-2.7832482373923995e-05,5.381530718295835e-05,3.808151086559519e-05,4.2937092075590044e-05
-3.702848334796727e-05,2.5958468540920876e-05,1.908094600366894e-05,3.342399577377364e-05
-4.446151797310449e-05,5.7567016483517364e-05,7.6098585850559175e-06,2.844027039827779e-05
-4.430897024576552e-05,0.00010672271309886128,1.1091645319538657e-05,3.1243973353412e-05
-3.7291716580512e-05,0.00013178990047890693,2.1939564248896204e-05,3.955455031245947e-05
-3.0793384212302044e-05,9.82256096904166e-05,2.6183213776675984e-05,5.143979433341883e-05
-2.7346819479134865e-05,1.4862491298117675e-05,1.7366972315357998e-05,6.012306039338e-05
-2.703402606130112e-05,-6.441893492592499e-05,-3.392653525224887e-06,6.206273246789351e-05
-3.4207077987957746e-05,-0.0001267329353140667,-3.243853279855102e-05,5.398526627686806e-05
-4.0954451833385974e-05,-0.0001495774049544707,-5.731268902309239e-05,4.4596312363864854e-05
-3.970633406424895e-05,-0.00010617230873322114,-6.746331200702116e-05,4.250299753039144e-05
-3.489384107524529e-05,-1.2180164958408568e-05,-6.231902079889551e-05,4.447246828931384e-05
-3.043300057470333e-05,6.891323573654518e-05,-4.2984451283700764e-05,4.977009302820079e-05
-2.665673309820704e-05,9.835387754719704e-05,-1.795576281438116e-05,5.6834938732208684e-05
-2.400838457106147e-05,0.0001035909735946916,-1.0616957979436847e-06,6.079920785850845e-05
-1.994293234020006e-05,0.00010640922118909657,5.402220267569646e-06,6.596520688617602e-05
-1.31340348161757e-05,0.0001205430380650796,3.1459912861464545e-06,7.208031456684694e-05
-9.193581718136556e-06,0.00013284047599881887,-3.5742589261644753e-06,7.27348742657341e-05
-1.203456395160174e-05,0.00011872103641508147,-1.3369629414228257e-05,7.072206790326163e-05
-1.7174259482999332e-05,7.345922495005652e-05,-1.9078142940998077e-05,7.040180935291573e-05
-1.921279908856377e-05,3.399224442546256e-05,-1.4077779269427992e-05,7.029086555121467e-05
-1.8353082850808278e-05,2.0784940716112033e-05,-4.476168669498293e-06,7.323116733459756e-05
-1.831251211115159e-05,2.872932054742705e-05,7.834736379663809e-07,7.80508853495121e-05
-2.0247251086402684e-05,3.8043515814933926e-05,-4.847327659263101e-07,7.967231795191765e-05
-2.3601405700901523e-05,3.06325382553041e-05,-3.042412117792992e-06,7.961562369018793e-05
-2.5560331778251566e-05,4.653361884265905e-06,-2.6853178951569134e-06,8.006528514670208e-05
-2.353416675759945e-05,-2.7858302928507328e-05,1.8644744841367356e-06,8.271053229691461e-05
-2.0332834537839517e-05,-4.296206680010073e-05,8.922364031604957e-06,8.546358731109649e-05
-2.1013955119997263e-05,-3.485897832433693e-05,1.6939615306910127e-05,8.423507097177207e-05
-2.656254764588084e-05,-2.2082904251874425e-05,2.0145314920227975e-05,7.929171260911971e-05
-3.025986734428443e-05,-3.2988940802169964e-05,8.982464350992814e-06,7.442037167493254e-05
-2.7912950827158056e-05,-6.010047945892438e-05,-1.7155147361336276e-05,7.214598736027256e-05
-2.2424806957133114e-05,-7.888745312811807e-05,-3.755076613742858e-05,7.245371671160683e-05
-1.6921489077503793e-05,-0.00011658363655442372,-3.785132503253408e-05,7.359803566941991e-05
-1.526183041278273e-05,-0.00019536330364644527,-2.7167579901288263e-05,7.497132173739374e-05
-1.808075830922462e-05,-0.0002317222679266706,-1.783703191904351e-05,7.533279131166637e-05
-2.197642606915906e-05,-0.0001691860525170341,-5.777436399512226e-06,7.133395411074162e-05
-2.5424656996619888e-05,-4.3820753489853814e-05,1.1812142474809662e-05,6.448317435570061e-05
-2.588045936136041e-05,0.00010216666851192713,2.079299883916974e-05,6.006789772072807e-05
-2.6370220439275727e-05,0.00020394238526932895,1.3916491298004985e-05,5.8665129472501576e-05
-2.8754013328580186e-05,0.0002442650147713721,-5.551042249862803e-06,5.93769655097276e-05
-3.0663490178994834e-05,0.0002605291083455086,-2.7827336452901363e-05,5.813783354824409e-05
-3.16260993713513e-05,0.0002657029253896326,-3.7959594919811934e-05,5.904674981138669e-05
-3.102635309915058e-05,0.00026410052669234574,-3.6170982639305294e-05,6.357397796818987e-05
-3.0397519367397763e-05,0.0002233386185253039,-3.62536302418448e-05,6.6008185967803e-05
-3.151820783386938e-05,0.00015384315338451415,-3.7132587749511003e-05,6.330313044600189e-05
-3.187240508850664e-05,8.975846139946952e-05,-3.412331352592446e-05,5.7502205891069025e-05
-3.1323237635660917e-05,5.076898742117919e-05,-2.9078233637847006e-05,5.5184747907333076e-05
-3.0674509616801515e-05,2.3396210963255726e-05,-2.4902390578063205e-05,5.5234260798897594e-05
-2.953364310087636e-05,-2.114305743816658e-06,-2.4254262825706974e-05,5.4719825129723176e-05
-2.6597926989779808e-05,-1.8413906218484044e-05,-2.5566814656485803e-05,5.2743478590855375e-05
-2.3158214389695786e-05,-2.979716009576805e-05,-2.7951444280915894e-05,5.316166061675176e-05
-2.0688947188318707e-05,-3.7600559153361246e-05,-3.1086645321920514e-05,5.673560008290224e-05
-2.1888959963689558e-05,-3.920243034372106e-05,-3.5276025300845504e-05,6.0515001678140834e-05
-2.944001607829705e-05,-2.9597023967653513e-05,-3.601737989811227e-05,6.345699512166902e-05
-3.8138849049573764e-05,-2.2055848603486083e-05,-3.258551441831514e-05,6.248240970307961e-05
-4.102344610146247e-05,-2.2071910279919393e-05,-2.9068043659208342e-05,5.849350054631941e-05
-3.6836183426203206e-05,-2.6093675842275843e-05,-2.4888739062589593e-05,5.4631502280244604e-05
-3.329012179165147e-05,-2.287793904542923e-05,-2.0984614820918068e-05,5.04315466969274e-05
-3.58206634700764e-05,-2.02428473130567e-05,-1.732678538246546e-05,4.8314588639186695e-05
-4.0037641156231984e-05,-1.861685814219527e-05,-1.2303064977459144e-05,5.2778843382839113e-05
-4.1053270251723006e-05,-1.2572066225402523e-05,-1.0237654350930825e-05,5.96385907556396e-05
-3.97165676986333e-05,-3.495941655273782e-06,-1.1252379408688284e-05,6.14743257756345e-05
-3.867760460707359e-05,-3.7956742744427174e-06,-1.0962768101308029e-05,6.077025318518281e-05
-4.041445572511293e-05,-1.1402779819036368e-05,-7.443319645972224e-06,6.106529326643795e-05
-4.22301673097536e-05,-8.642029570182785e-06,-9.864756975730415e-06,6.198596383910626e-05
-4.4291053200140595e-05,1.1641668606898747e-05,-1.563880687172059e-05,6.026861592545174e-05
-4.326918860897422e-05,2.8250462491996586e-05,-1.2788220374204684e-05,5.754547964897938e-05
-4.173478373559192e-05,3.828181070275605e-05,-3.335633664391935e-06,5.84734880249016e-05
-4.1489285649731755e-05,4.778649235959165e-05,4.147156232647831e-06,6.054844561731443e-05
-3.878757343045436e-05,5.032056287745945e-05,1.634295017538534e-06,6.027663766872138e-05
-3.518610537867062e-05,5.098694236949086e-05,-1.2506341136031551e-06,5.844779661856592e-05
-3.0270164643297903e-05,5.927413803874515e-05,2.6629561489244225e-06,5.812261952087283e-05
-2.9078972147544846e-05,6.890251097502187e-05,6.928767561475979e-06,5.359876377042383e-05
-2.8462389309424907e-05,5.63342691748403e-05,6.083592325012432e-06,4.5412623876472935e-05
-2.1458672563312575e-05,1.03639913504594e-05,3.5772789033217123e-06,4.1565079300198704e-05
-1.0298199413227849e-05,-4.760588126373477e-05,1.28640874663688e-06,4.266058749635704e-05
-3.7584179608529666e-06,-6.331070471787825e-05,-4.658330396978272e-07,4.560660818242468e-05
-2.055002596534905e-06,-1.954473918885924e-05,-2.0789816517208237e-06,4.999319207854569e-05
-2.77276035376417e-06,3.515207936288789e-05,-2.7535072604223387e-06,5.598773714154959e-05
-7.916485628811643e-06,4.297160558053292e-05,-9.388908210894442e-07,5.92812430113554e-05
-1.563308251206763e-05,9.153955943475012e-06,2.7518085516931023e-06,5.8620262279873714e-05
-1.9378985598450527e-05,-3.11360890918877e-05,6.826337539678207e-06,5.843078179168515e-05
-1.6986214177450165e-05,-5.5979107855819166e-05,8.59549891174538e-06,6.028061034157872e-05
-1.2161543963884469e-05,-5.630694067804143e-05,6.622839464398567e-06,6.363179272739217e-05
-9.438239430892281e-06,-2.894838689826429e-05,4.986343810742255e-06,6.797658716095611e-05
-1.3450843653117772e-05,2.078188663290348e-05,7.394411568384385e-06,6.890181248309091e-05
-1.9048120520892553e-05,7.153672777349129e-05,7.075173471093876e-06,6.605766247957945e-05
-2.362457053095568e-05,0.00010698326514102519,-4.911665882900706e-07,6.41871229163371e-05
-2.94616911560297e-05,0.00015029478527139872,-8.28219981485745e-06,6.463600584538653e-05
-3.594710506149568e-05,0.00020511410548351705,-1.441605400032131e-05,6.380057311616838e-05
-4.27527520514559e-05,0.00021600369655061513,-2.037045305769425e-05,6.158361065899953e-05
-5.181950473343022e-05,0.00014335126616060734,-2.4022103389143012e-05,5.98694387008436e-05
-5.3728588682133704e-05,5.129132478032261e-05,-3.0991050152806565e-05,6.214409222593531e-05
-5.00620917591732e-05,-8.555894055461977e-07,-3.9306913095060736e-05,6.479469448095188e-05
-5.223117841524072e-05,-1.1647564861050341e-05,-4.363533662399277e-05,6.336600927170366e-05
-6.16314573562704e-05,3.018473034899216e-05,-4.02394580305554e-05,6.283034599618986e-05
-7.409705722238868e-05,8.484617137582973e-05,-3.459092113189399e-05,6.465519982157275e-05
-8.150060602929443e-05,0.00011607931082835421,-3.3587959478609264e-05,6.51989466859959e-05
-8.130507922032848e-05,0.00010976945486618206,-3.48664507328067e-05,6.417358963517472e-05
-7.348643703153357e-05,5.794829485239461e-05,-3.2814001315273345e-05,6.38302881270647e-05
-6.797040987294167e-05,6.268258857744513e-06,-2.9127853849786334e-05,6.218189810169861e-05
-6.589902477571741e-05,3.5592652238847222e-06,-2.5739625925780274e-05,6.181372737046331e-05
-6.441336881835014e-05,2.286105154780671e-05,-2.1990570530761033e-05,6.483721517724916e-05
-6.0595284594455734e-05,2.8073463909095153e-05,-2.151431363017764e-05,6.784823926864192e-05
-5.317206523614004e-05,1.7744281649356708e-05,-2.4212869902839884e-05,6.692680472042412e-05
-4.592338518705219e-05,1.2388567256493843e-06,-2.7109883376397192e-05,6.203222437761724e-05
-4.2586238123476505e-05,-1.8310689483769238e-05,-2.3979409888852388e-05,5.34912760485895e-05
-4.0819577407091856e-05,-2.9024375180597417e-05,-1.2955414604221005e-05,4.489138882490806e-05
-3.0265293389675207e-05,-2.1196297893766314e-05,-9.407360721525038e-07,4.1706218325998634e-05
-6.035306341800606e-06,-6.470348580478458e-06,5.397607310442254e-06,4.948279820382595e-05
2.665171996341087e-05,3.6799160625378136e-06,9.714148291095626e-06,6.540303002111614e-05
5.701734698959626e-05,8.257845365733374e-06,1.4278532944445033e-05,7.824314525350928e-05
7.626774458913133e-05,1.1267725312791299e-05,1.5615718439221382e-05,8.268923556897789e-05
7.567806460428983e-05,6.479903277067933e-06,1.3286669855006039e-05,8.054311183514073e-05
6.405924068531021e-05,-1.1075165275542531e-05,1.3264803783386014e-05,7.415127038257197e-05
5.720650005969219e-05,-4.2322550143580884e-05,1.6149680959642865e-05,6.66817431920208e-05
5.4984931921353564e-05,-7.026952516753227e-05,2.0819084966205992e-05,6.224715616554022e-05
5.043641431257129e-05,-7.41260009817779e-05,2.392440910625737e-05,5.605329351965338e-05
4.0474216802977026e-05,-4.8787405830807984e-05,2.146414408343844e-05,4.7649584303144366e-05
2.7480011340230703e-05,-1.6518486518179998e-05,2.004955786105711e-05,4.5888853492215276e-05
1.3592623872682452e-05,2.3709997549303807e-05,2.1586545699392445e-05,5.0175440264865756e-05
2.4071157440630486e-06,7.567687862319872e-05,2.2406718926504254e-05,5.3365114581538364e-05
-2.756291905825492e-06,0.00012082223111065105,1.80867500603199e-05,5.6695851526455954e-05
-8.326825991389342e-06,0.00014769444533158094,5.656666871800553e-06,6.0093421780038625e-05
-1.1017783435818274e-05,0.00016011606203392148,-1.082145990949357e-05,6.260200461838394e-05
-1.7529384422232397e-05,0.0001675764942774549,-3.263010876253247e-05,6.544842472067103e-05
-4.9209582357434556e-05,0.00015132919361349195,-5.468799645313993e-05,7.12362234480679e-05
-0.00011422276293160394,0.00010818114242283627,-6.6491833422333e-05,7.879771874286234e-05
-0.00018917331181000918,6.217831833055243e-05,-6.506757199531421e-05,8.238390000769868e-05
-0.00024776029749773443,3.13227174046915e-05,-5.248410161584616e-05,7.601815013913438e-05
-0.0002870056196115911,1.705536851659417e-05,-3.6668763641500846e-05,6.336801016004756e-05
-0.00031541945645585656,1.2638673069886863e-05,-2.0360714188427664e-05,5.296796734910458e-05
-0.00033793822512961924,1.5914827599772252e-05,-4.580712811730336e-06,4.638509199139662e-05
-0.00035012647276744246,1.6722322470741346e-05,7.698720764892641e-06,3.9173279219539836e-05
-0.00034749432234093547,-1.106253861848927e-07,1.2833316759497393e-05,2.8806414775317535e-05
-0.0003172247961629182,-3.536537042236887e-05,1.439232346456265e-05,1.5718702343292534e-05
-0.0002491258201189339,-6.663738167844713e-05,1.4937070773157757e-05,2.4379567094001686e-06
-0.00015284778783097863,-7.148434087866917e-05,1.0234578439849429e-05,-5.526815584744327e-06
-4.8290472477674484e-05,-4.589399031829089e-05,-1.5687417089793598e-06,-7.774486221023835e-06
7.481325883418322e-05,-1.1159600035171025e-05,-1.3392005712375976e-05,-8.905566573957913e-06
0.0002506710006855428,1.3399900126387365e-05,-1.5600217011524364e-05,-6.172797839099076e-06
0.00046259333612397313,3.6876124795526266e-05,-1.1205249393242411e-05,1.4918603028490907e-06
0.0006004860624670982,6.193971785251051e-05,-8.070567673712503e-06,3.6177841593598714e-06
0.0005655306740663946,7.051489956211299e-05,-9.589546607458033e-06,4.6615837163699325e-06
0.0003904818731825799,5.9873815189348534e-05,-1.2968625924258959e-05,1.2217673429404385e-05
0.00018987784278579056,3.7117624742677435e-05,-1.3207703887019306e-05,2.8767160983989015e-05
7.297784031834453e-05,1.9976771000074223e-05,-9.114217391470447e-06,4.9480440793558955e-05
3.311095861135982e-05,2.6227289708913304e-05,-2.644546157171135e-06,6.982439663261175e-05
3.0921211873646826e-05,4.4727428758051246e-05,2.486954144842457e-06,8.797648479230702e-05
4.7895035095280036e-05,4.516496119322255e-05,2.7975770535704214e-06,9.694688924355432e-05
5.767375841969624e-05,-1.30316939248587e-05,2.8305992145760683e-06,8.770483691478148e-05
7.223734428407624e-05,-0.00011295446165604517,1.0975534678436816e-05,6.696664786431938e-05
5.893543129786849e-05,-0.00017799956549424678,2.4934350221883506e-05,5.930209226789884e-05
-3.2624370760458987e-06,-0.00015980815805960447,3.789580659940839e-05,7.368629303527996e-05
-9.042352030519396e-05,-8.723409700905904e-05,3.847014158964157e-05,9.846234024735168e-05
-0.0001424043148290366,-1.0567828212515451e-05,2.2730653654434718e-05,0.00012398198305163532
-0.00014871094026602805,3.0360011805896647e-05,4.061016170453513e-06,0.00015581124171148986
-0.00014747962995897979,2.4003011276363395e-05,-1.7177140989588224e-06,0.00018917146371677518
-0.00017363153165206313,-2.3359777969744755e-06,1.0029119948740117e-05,0.00021311019372660667
-0.0002282009372720495,-1.655569030845072e-05,3.0631392291979864e-05,0.00021187948004808277
-0.00029538609669543803,-1.4874271073495038e-05,5.0058755732607096e-05,0.00017237219435628504
-0.00035937500069849193,-1.1660587006190326e-05,6.342856795527041e-05,0.00010300847498001531
-0.00040043386979959905,-1.2236137081345078e-05,7.219906547106802e-05,2.9300423193490133e-05
-0.0004108111606910825,-1.3985802979732398e-05,6.935191049706191e-05,-2.987411426147446e-05
-0.0003700691449921578,-7.835589713067748e-06,4.6628098061773926e-05,-7.140943489503115e-05
-0.0002652191324159503,5.733174020861043e-06,4.329613148001954e-06,-9.43762352108024e-05
-9.19640006031841e-05,1.706503280729521e-05,-4.877589890384115e-05,-9.731005411595106e-05
0.00011219801672268659,2.002104520215653e-05,-9.383862197864801e-05,-7.096400076989084e-05
0.0002565589966252446,1.3706844583794009e-05,-0.00011618025746429339,-2.7926707844017074e-05
0.0003135059669148177,-1.3660228432854638e-06,-0.00012120622704969719,-3.242725142627023e-06
0.0003612432337831706,-9.820822924666572e-06,-0.0001213522773468867,2.9679949875571765e-06
0.0004113997856620699,-2.8025874598824885e-06,-0.00011947882012464106,1.5239784261211753e-05
0.0003998268221039325,2.724352725635981e-06,-0.00011576147517189384,3.560634650057182e-05
0.0003278469084762037,-1.832838620430266e-06,-0.00011108618491562083,4.890938362223096e-05
0.00024245984968729317,-7.941685908008367e-06,-9.945793863153085e-05,5.546707325265743e-05
0.0001426401431672275,-2.1118769382155733e-06,-7.755007391097024e-05,7.413321145577356e-05
6.984813080634922e-05,1.490521026425995e-05,-5.807101842947304e-05,0.0001022502692649141
4.4576008804142475e-05,2.4273134840768762e-05,-4.5769207645207644e-05,0.00012254223111085594
4.157941657467745e-05,3.373396612005308e-05,-3.3208998502232134e-05,0.0001375295250909403
5.456288636196405e-05,5.3574138291878626e-05,-2.5357536287629046e-05,0.00014789766282774508
9.433636296307668e-05,7.323008321691304e-05,-2.6354988222010434e-05,0.0001450624840799719
0.0001319766597589478,7.720030407654122e-05,-2.5079454644583166e-05,0.0001275994727620855
0.00012059995788149536,6.989055691519752e-05,-1.0118442332895938e-05,0.00010062303044833243
5.034794594394043e-05,6.985457002883777e-05,1.1754421393561643e-05,8.69187424541451e-05
-4.158577576163225e-05,7.861370977479964e-05,2.805659460136667e-05,9.553441486787051e-05
-0.00011724771320587024,7.890372216934338e-05,4.401316255098209e-05,0.0001056059991242364
-0.00017022482643369585,6.459130236180499e-05,6.481129094026983e-05,9.901249723043293e-05
-0.0002023942506639287,4.9210197175852954e-05,8.082683780230582e-05,8.289777906611562e-05
-0.00021886346803512424,5.1452447223709896e-05,8.34772945381701e-05,7.488417759304866e-05
-0.00022282525605987757,7.268838817253709e-05,7.320279109990224e-05,7.912751607364044e-05
-0.00022088838159106672,8.877846266841516e-05,5.145503018866293e-05,8.57869308674708e-05
-0.0001972013124031946,7.798509614076465e-05,2.4500432118657045e-05,9.005396714201197e-05
-0.00014879676746204495,4.869197800871916e-05,8.461231715273243e-09,0.00010139264486497268
-8.857777720550075e-05,3.096574801020324e-05,-1.6067617252701893e-05,0.0001270631473744288
-2.5866887881420553e-05,3.2408595870947465e-05,-2.2444515707320534e-05,0.00014810680295340717
3.826592364930548e-05,4.389185050968081e-05,-2.227604272775352e-05,0.0001227936299983412
9.246543049812317e-05,4.557628926704638e-05,-2.3100614271243103e-05,4.902432192466222e-05
0.00013032053539063781,2.911669434979558e-05,-2.6347572202212177e-05,-1.6954594684648328e-05
0.00013955269241705537,1.367728145851288e-05,-2.5114271920756437e-05,-3.566345912986435e-05
0.00011498612002469599,1.0879808542085811e-05,-2.3456303097191267e-05,-3.575996379368007e-05
8.462415280519053e-05,1.5107269064174034e-05,-2.381481863267254e-05,-4.358236401458271e-05
8.192932727979496e-05,2.2032076230971143e-05,-2.3836288164602593e-05,-5.508781396201812e-05
9.638950723456219e-05,2.3318538296734914e-05,-2.817470522131771e-05,-6.982756895013154e-05
9.877226693788543e-05,2.001173015742097e-05,-3.3491727663204074e-05,-5.533004514290951e-05
5.9148278523935005e-05,2.1599174942821264e-05,-3.2322710467269644e-05,2.714646427648404e-07
-1.4606633158109616e-05,7.963127245602664e-06,-2.8711352570098825e-05,4.16369985032361e-05
-9.862057777354494e-05,-3.761701736948453e-05,-2.975728602905292e-05,3.872256638715044e-05
-0.00016444973880425096,-7.718918641330674e-05,-3.513845877023414e-05,2.6010127839981578e-05
-0.0001951853046193719,-6.911751552252099e-05,-3.6532164813252166e-05,4.730562795884907e-05
-0.00019418391457293183,-2.982297337439377e-05,-3.149747135466896e-05,8.766533574089408e-05
-0.00017300630861427635,5.842691280122381e-06,-2.1284888134687208e-05,0.00011222463945159689
-0.0001431040873285383,2.896856312872842e-05,-1.0548998943704646e-05,0.0001251900102943182
-0.00012140947364969179,4.2313418816775084e-05,-3.816122443822678e-06,0.00014967500464990735
-0.00012179142504464835,4.621578409569338e-05,1.0269153563058353e-06,0.00016997400962281972
-0.00013591471360996366,4.090792208444327e-05,7.5693169492296875e-06,0.0001540557132102549
-0.00016111883451230824,3.6954243114450946e-05,1.8817952877725475e-05,0.0001184743523481302
-0.0002137328265234828,4.097764031030238e-05,3.395162639208138e-05,9.878653509076685e-05
-0.0003063152253162116,5.014676207792945e-05,4.418029129737988e-05,9.813693031901494e-05
-0.0003945375792682171,5.5621363571844995e-05,4.329163130023517e-05,0.00010441333870403469
-0.00042293628212064505,5.051843618275598e-05,3.706709321704693e-05,0.00012407878239173442
-0.00037982407957315445,4.049462586408481e-05,2.8389335056999698e-05,0.00016314331151079386
-0.0003136420564260334,4.076695768162608e-05,1.5805399016244337e-05,0.00018797432130668312
-0.00027376378420740366,5.178863648325205e-05,2.704098733374849e-06,0.0001489084679633379
-0.00022920998162589967,5.557308395509608e-05,-9.67793312156573e-06,8.846921991789714e-05
-0.00013280905841384083,4.867399547947571e-05,-2.694343675102573e-05,7.95179876149632e-05
-2.481545197952073e-05,3.868900239467621e-05,-4.486886246013455e-05,9.92463537841104e-05
7.269199704751372e-05,2.2942645955481566e-05,-5.5561158660566434e-05,7.26199577911757e-05
0.00017154040688183159,1.0772185305540916e-05,-5.510607661562972e-05,1.3222244888311252e-05
0.0003040683513972908,1.6600593880866654e-05,-4.958012868883088e-05,-1.7421649317839183e-05
0.0004433048306964338,3.187685433658771e-05,-5.2236639021430165e-05,-1.8245018509333022e-05
0.0005025601130910218,3.2059757359093055e-05,-5.9001384215662256e-05,-7.709661531407619e-07
0.0004778331203851849,1.822467766032787e-06,-5.73217730561737e-05,1.391948990203673e-05
0.0004134756454732269,-3.7126432289369404e-05,-4.5636934373760596e-05,2.4702392693143338e-05
0.00032097261282615364,-4.991397509002127e-05,-3.52530914824456e-05,3.854020906146616e-05
0.00020892758038826287,-4.12745721405372e-05,-3.2930445740930736e-05,5.345942918211222e-05
0.00010282830044161528,-3.8225072785280645e-05,-3.290942913736217e-05,5.87165450269822e-05
1.3419577044260222e-05,-3.5732991818804294e-05,-2.6346755475969985e-05,4.428135434864089e-05
-3.116105654044077e-05,-3.157517494400963e-05,-1.1577276382013224e-05,2.7809155653812923e-05
-3.398029730306007e-05,-2.367927118029911e-05,8.397800229431596e-06,2.0012559616588987e-05
-4.501049261307344e-05,-6.062101419956889e-06,3.0332254027598538e-05,7.581239515275229e-06
-0.00010267235484207049,2.4759117877692915e-05,4.635371078620665e-05,-1.981787681870628e-05
-0.00019353782408870757,5.8627480029826984e-05,5.124954259372316e-05,-4.2151325033046305e-05
-0.000297529244562611,8.551088103558868e-05,5.055684960098006e-05,-2.9227554477984086e-05
-0.00040256898500956595,0.00010851023398572579,5.27401061845012e-05,3.174929952365346e-05
-0.00048356057959608734,0.00012403981236275285,5.575233808485791e-05,0.00011871202877955511
-0.0005178237915970385,0.00012154899741290137,5.348526610760018e-05,0.00018481945153325796
-0.0004953591269440949,0.00010744239261839539,4.4917742343386635e-05,0.00019582573440857232
-0.0004157407092861831,9.805832814890891e-05,3.0462140784948133e-05,0.00015951707609929144
-0.0002946593740489334,7.620919495820999e-05,6.924566150701139e-06,0.0001328225916950032
-0.00017791255959309638,2.0215769836795516e-05,-1.803254235710483e-05,0.00018229954002890736
-7.579366501886398e-05,-6.621245120186359e-05,-2.8628453947021626e-05,0.00027269450947642326
7.790956442477182e-05,-0.00014240875316318125,-3.855899194604717e-05,0.00028896029107272625
0.0002868186857085675,-0.00016286666505038738,-6.546326767420396e-05,0.00023206292826216668
0.00044595400686375797,-0.00010974422912113369,-9.799925464903936e-05,0.00017869043222162873
0.0004622790729627013,-3.0350740416906774e-05,-0.00011013347102561966,0.0001106012859963812
0.0004113184113521129,2.1699674107367173e-05,-0.00010328828648198396,-6.287335963861551e-06
0.00037233729381114244,4.383016494102776e-05,-9.372559725306928e-05,-0.00014270386600401253
0.0003018513962160796,4.2269210098311305e-05,-8.218568109441549e-05,-0.00021956705313641578
0.0002143907913705334,3.188845585100353e-05,-7.726771582383662e-05,-0.00018087757052853703
0.000123198886285536,2.3092381525202654e-05,-7.722985901637003e-05,-0.0001016373498714529
2.1885158275836147e-05,1.9178245565854013e-05,-7.14026900823228e-05,-7.819628081051633e-05
-9.340997348772362e-05,1.3400987882050686e-05,-5.496887752087787e-05,-8.325318776769564e-05
-0.00018427976465318352,2.640066895764903e-06,-3.096515138167888e-05,-6.316962389973924e-05
-0.0002233557461295277,-8.266168151749298e-06,-1.7870524970931e-06,-2.4270175345009193e-05
-0.00021664467931259423,-6.256606411625398e-06,2.876972394005861e-05,-2.9737055228906684e-05
-0.00019909221737179905,1.3414001841738354e-05,5.366513869375922e-05,-0.00011293414718238637
-0.0002029040624620393,3.639341230154969e-05,6.44243264105171e-05,-0.00021190156985539943
-0.00021305843256413937,4.90765341965016e-05,6.241067603696138e-05,-0.0002411970344837755
-0.00020320547628216445,4.611908661900088e-05,5.6919034250313416e-05,-0.00020179124840069562
-0.0001740557636367157,3.8754893466830254e-05,4.780095332534984e-05,-0.0001579720847075805
-0.00014765013474971056,3.513509363983758e-05,3.272515459684655e-05,-0.000141816635732539
-0.00010849106911337003,3.588371691876091e-05,1.595163848833181e-05,-0.0001455502351745963
-2.155582478735596e-05,4.182059274171479e-05,7.964984547470522e-07,-0.0001682040747255087
0.00010373680561315268,5.535823220270686e-05,-1.6787224012659863e-05,-0.00022169908334035426
0.00017195446707773954,6.868541095172986e-05,-3.15862889692653e-05,-0.0002513027866370976
0.0001506264670751989,7.565569831058383e-05,-3.804466541623697e-05,-0.0001965277042472735
9.568093810230494e-05,6.871301593491808e-05,-3.86274405173026e-05,-9.151895210379735e-05
4.354915290605277e-05,4.477941183722578e-05,-3.7159403291298077e-05,4.0342429201700725e-06
5.741098721046001e-05,2.050568764389027e-05,-3.6148401704849675e-05,6.84108745190315e-05
0.00015030534996185452,2.637955913087353e-05,-3.322331394883804e-05,0.00010409902461105958
0.00019949491252191365,5.99880404479336e-05,-2.3680053345742635e-05,0.00015720113879069686
0.0001212781498907134,8.284343493869528e-05,-1.79484995896928e-05,0.00023158198746386915
-2.0833142116316594e-05,7.883484067860991e-05,-1.891068859549705e-05,0.0002637345460243523
-9.894911636365578e-05,5.4821663070470095e-05,-2.2030380932847038e-05,0.0002369289577472955
-0.00010491713328519836,3.5022116207983345e-05,-2.4323193429154344e-05,0.00019809434888884425
-7.902303332230076e-05,3.670050500659272e-05,-2.2774906028644182e-05,0.00018329508020542562
-4.069003261975013e-05,4.7148900193860754e-05,-2.496840534149669e-05,0.00019166080164723098
-1.2627835531020537e-05,4.7360215830849484e-05,-2.644340565893799e-05,0.00022112503938842565
2.2300426280708052e-05,3.6611159885069355e-05,-1.7242775356862694e-05,0.0002737677423283458
8.497836097376421e-05,2.804795622068923e-05,-2.9428163088596193e-06,0.0003237999335397035
0.00010710059723351151,2.696458795981016e-05,9.369466170028318e-06,0.00035198370460420847
5.846027852385305e-05,3.485093475319445e-05,1.7746799130691215e-05,0.00034784202580340207
1.519497800472891e-05,4.6440651203738526e-05,2.2610700398217887e-05,0.00029204689781181514
3.3717362384777516e-05,5.0048500270349905e-05,2.625582601467613e-05,0.00020266712817829102
6.254531763261184e-05,4.5759261411149055e-05,3.3669155527604744e-05,0.00012520138989202678
-2.513777872081846e-06,3.9129972719820216e-05,4.494365566642955e-05,7.97381580923684e-05
-0.00016669630713295192,3.478760118014179e-05,5.6976165069499984e-05,5.764141315012239e-05
-0.00034466609940864146,3.117363667115569e-05,6.751320324838161e-05,5.137345942785032e-05
-0.00046132836723700166,2.4823973944876343e-05,6.865524483146146e-05,5.338279152056202e-05
-0.0005147376214154065,1.4498148630082142e-05,5.8493831602390856e-05,7.6785494456999e-05
-0.0005309907719492912,4.270274530426832e-06,4.481831638258882e-05,0.00013332650996744633
-0.0005237823352217674,-1.0283380333930836e-06,2.9379487386904657e-05,0.00017366216343361884
-0.00047053329763002694,2.1424234546429943e-06,8.378562597499695e-06,0.0001458571496186778
-0.000360309291863814,1.2369317119009793e-05,-1.01832647487754e-05,6.631401629419997e-05
-0.00020504911663010716,3.0270228307927027e-05,-1.5671737855882384e-05,-6.823095191066386e-06
-4.8179004807025194e-05,4.31725311500486e-05,-1.2624050214071758e-05,-4.1268864151788875e-05
5.6921573559520766e-05,2.78199167951243e-05,-1.2248605344211683e-05,-3.878444113070145e-05
0.0001471787691116333,-1.2670062460529152e-05,-1.9743940356420353e-05,-9.489157491771039e-06
0.0002942859719041735,-3.34902033500839e-05,-3.4716144000412896e-05,1.9665372747112997e-05
0.00042528481571935117,-1.806133150239475e-05,-4.930484647047706e-05,4.3796160753117874e-05
0.0004519952635746449,8.29347027320182e-06,-5.482952838065103e-05,7.306808402063325e-05
0.0004276579129509628,3.6088986234972253e-05,-5.04412419104483e-05,0.00012159975449321792
0.0004221033595968038,5.855060589965433e-05,-4.119509685551748e-05,0.00017853763711173087
0.000438269111327827,7.044279482215643e-05,-3.263158578192815e-05,0.0002377821074333042
0.00044692764640785754,6.814429070800543e-05,-3.132511119474657e-05,0.00029622612055391073
0.00039464732981286943,6.029389624018222e-05,-3.829787237918936e-05,0.00032207672484219074
0.00027058232808485627,4.8082820285344496e-05,-4.7215347876772285e-05,0.00030338301439769566
0.00012535072164610028,3.1505031074630097e-05,-4.1867995605571195e-05,0.00026024249382317066
7.677323992538732e-06,1.723845889500808e-05,-1.8022019503405318e-05,0.000233025464694947
-6.539809692185372e-05,1.4551507774740458e-05,6.194514298840659e-06,0.0002250311226816848
-9.626770042814314e-05,2.7722888262360357e-05,1.3243837202026043e-05,0.0002073685172945261
-9.72997659118846e-05,4.3300366087350994e-05,3.3285905374214053e-06,0.000148452163557522
-9.121468610828742e-05,3.077702422160655e-05,-1.25201913760975e-05,6.004721581120975e-05
-8.842932584229857e-05,-2.3148661057348363e-05,-2.715318805712741e-05,2.958552158816019e-06
-8.350118150701746e-05,-7.794679549988359e-05,-3.457712955423631e-05,5.538177902053576e-06
-5.9017645980929956e-05,-8.610029180999845e-05,-2.8918879252159968e-05,4.4466978579293936e-05
-1.413409427186707e-05,-4.8417474317830056e-05,-9.67725645750761e-06,8.852320752339438e-05
2.169503568438813e-05,2.179814146074932e-06,1.332839656242868e-05,0.00011529173207236454
-2.815246205045696e-07,4.065839675604366e-05,2.882015542127192e-05,0.00011585908941924572
-8.062526467256248e-05,5.1569280913099647e-05,3.3654767321422696e-05,7.610682223457843e-05
-0.00016729786875657737,4.778840229846537e-05,3.328632010379806e-05,1.3300679313488217e-07
-0.00022649705351796,3.8687856431351975e-05,3.437877239775844e-05,-6.817440589657053e-05
-0.00026328070089221,2.261827830807306e-05,3.542377817211673e-05,-0.00011025734420400113
-0.0002777657937258482,8.338844963873271e-06,2.7301697627990507e-05,-0.00013805952039547265
-0.0002657756849657744,6.582184141734615e-06,1.1737500244635157e-05,-0.00019675014482345432
-0.00025000618188641965,9.988966667151544e-06,-2.889600636990508e-06,-0.0002651565009728074
-0.00023267486540134996,-1.1897725471499143e-07,-1.2522486031230073e-05,-0.00024984549963846803
-0.00017610257782507688,-3.3706464819260873e-06,-1.922862975334283e-05,-0.00019612236064858735
-7.742388697806746e-05,1.759941369527951e-05,-2.128964479197748e-05,-0.00016346501070074737
6.284393020905554e-05,4.843301576329395e-05,-1.8123271729564294e-05,-0.00012525230704341084
0.0002196550922235474,7.437512977048755e-05,-1.901984251162503e-05,-8.784267265582457e-05
0.0003514855052344501,9.002661681734025e-05,-2.0850526198046282e-05,-4.613402779796161e-05
0.00041342381155118346,0.00010552859021117911,-1.4956823179090861e-05,2.778683892756817e-06
0.0003598743351176381,0.00012602072092704475,-6.573867722181603e-06,3.925643250113353e-05
0.0002060107362922281,0.00014048017328605056,-3.115258778052521e-06,5.394931577029638e-05
1.4879803529765923e-05,0.00013902872160542756,3.4322633268857317e-07,4.0989940316649154e-05
-0.00013453639985527843,0.00012251526641193777,5.5660930229350924e-06,1.4635093975812197e-05
-0.00020906147256027907,8.910741598811e-05,1.8006650179813732e-06,3.0349829103215598e-06
-0.00022707090829499066,4.3848198401974514e-05,-1.1954390174651053e-05,1.7230720914085396e-05
-0.00021737589850090444,1.8255725080962293e-05,-2.607529859233182e-05,4.709885979536921e-05
-0.00019143342797178775,3.737465158337727e-05,-3.429258504183963e-05,7.86561140557751e-05
-0.00016135758778546005,8.607355994172394e-05,-3.710194869199768e-05,9.561421757098287e-05
-0.00013450310507323593,0.00012468612112570554,-3.584772639442235e-05,9.952030086424202e-05
-0.0001112792597268708,0.00010745492181740701,-3.169497358612716e-05,0.00010182412370340899
-9.607117681298405e-05,4.659904334403109e-06,-2.685726030904334e-05,9.669830615166575e-05
-9.59556782618165e-05,-0.0001378193701384589,-2.3541839254903607e-05,7.430977711919695e-05
-0.00010908260446740314,-0.0002213915577158332,-2.40097851929022e-05,3.720484164659865e-05
-0.00011693980923155323,-0.00020941112597938627,-2.9986760637257248e-05,-3.2158091016754042e-06
-0.00012915782281197608,-0.00014281272888183594,-4.1640807467047125e-05,-3.3469634217908606e-05
-0.00018382752023171633,-5.811520532006398e-05,-5.101417627884075e-05,-3.813171497313306e-05
-0.00028172286693006754,9.305598723585717e-06,-5.166474511497654e-05,-2.030837640631944e-05
-0.0003839104319922626,1.1936648661503568e-05,-4.621912012225948e-05,1.2116480320401024e-05
-0.0004657318932004273,-1.915796019602567e-05,-4.269109922461212e-05,5.503107240656391e-05
-0.0005139968125149608,-2.8821534215239808e-05,-4.641138366423547e-05,9.147621312877163e-05
-0.000452292850241065,-3.2811374694574624e-05,-4.726519910036586e-05,0.00011822551459772512
-0.00027399908867664635,-5.471393160405569e-05,-4.133249240112491e-05,0.00013719165872316808
-7.167494914028794e-05,-6.757529627066106e-05,-4.794709093403071e-05,0.0001550677407067269
0.00010254441440338269,-5.256868462311104e-05,-7.303894381038845e-05,0.00020260589371901006
0.0002480147813912481,-3.6811703466810286e-05,-0.00010033980652224272,0.000258598942309618
0.00036791025195270777,-1.7639347788644955e-05,-0.00011629462824203074,0.00027389073511585593
0.00041842536302283406,2.423584010102786e-05,-0.00011409707076381892,0.0002478109672665596
0.00039660988841205835,6.672892050119117e-05,-9.186648821923882e-05,0.00020058066002093256
0.0003379351692274213,7.805708446539938e-05,-5.9257108659949154e-05,0.00013883276551496238
0.00023730166140012443,6.60957521176897e-05,-3.243154787924141e-05,6.112006667535752e-05
9.159402543446049e-05,5.065976074547507e-05,-1.500027246947866e-05,-5.296869858284481e-06
-3.5736669815378264e-05,4.1977400542236865e-05,1.902092918726339e-07,-3.61745260306634e-05
-7.944511889945716e-05,3.834731978713535e-05,1.4390468095371034e-05,-3.7253110349411145e-05
-3.410350836929865e-05,4.1801373299676925e-05,2.7007565222447738e-05,-1.4390653632290196e-05
4.722922676592134e-05,5.769564813817851e-05,3.9411363104591146e-05,3.4611832234077156e-05
0.0001045270255417563,8.231002721004188e-05,5.118530316394754e-05,8.669757517054677e-05
0.0001212988281622529,0.00011124244338134304,6.33921954431571e-05,0.00011790851567639038
0.0001098392967833206,0.00014142724103294313,7.590513996547088e-05,0.00014574984379578382
7.389120582956821e-05,0.00016290918574668467,8.232764957938343e-05,0.00018961007299367338
6.8911504058633e-06,0.0001632923085708171,8.231358515331522e-05,0.00023025025438982993
-6.899421714479104e-05,0.00015256779443006963,7.836020085960627e-05,0.00024397752713412046
-0.00012131097173551098,0.000140597257995978,6.991122791077942e-05,0.00023464647529181093
-0.00012813053035642952,0.00011849652946693823,6.62765305605717e-05,0.00021240380010567605
-8.530976629117504e-05,6.827045581303537e-05,6.756215589120984e-05,0.00018700283544603735
-4.143558180658147e-05,-5.788310227217153e-05,5.879389573237859e-05,0.00015854614321142435
-2.7347598006599583e-05,-0.00021191420091781765,4.046123649459332e-05,0.00012830496416427195
-1.7463487722579885e-07,-0.0002549322962295264,2.7539990696823224e-05,9.706021228339523e-05
3.6758541682502255e-05,-0.00015566580987069756,2.438558112771716e-05,6.25233951723203e-05
4.6545854274882004e-05,-6.8501817622745875e-06,2.837120700860396e-05,2.1419748009066097e-05
2.392646456428338e-05,8.89347938937135e-05,3.2416453905170783e-05,-1.6399102605646476e-05
-1.324429740634514e-05,0.00011203129542991519,2.8294225558056496e-05,-2.8877977456431836e-05
-3.967657539760694e-05,9.193688310915604e-05,1.7360347555950284e-05,-1.0638829053277732e-06
-5.063401476945728e-05,7.80824848334305e-05,3.625231556725339e-06,5.376462286221795e-05
-5.247792796581052e-05,7.438817556248978e-05,-7.876340532675385e-06,9.863351442618296e-05
-6.0174603277118877e-05,6.801749259466305e-05,-1.1301597623969428e-05,0.00011566642206162214
-8.786549005890265e-05,4.320768857724033e-05,-2.4485302674293052e-06,0.00010907249088631943
-0.00013392188702709973,7.774150617478881e-06,1.1049533895857166e-05,9.490234515396878e-05
-0.00018367469601798803,-8.079310646280646e-06,1.5768846424180083e-05,7.390033715637401e-05
-0.00023298441374208778,-2.2329406874632696e-06,3.3303485906799324e-06,3.9609170926269144e-05
-0.00028431788086891174,6.238415153347887e-06,-2.238764864159748e-05,3.751829808606999e-06
-0.00032173184445127845,6.039259460521862e-06,-4.612786142388359e-05,-1.1579878446354996e-05
-0.00031460000900551677,6.139766810520086e-07,-6.26314285909757e-05,-8.987178262032103e-06
-0.00025247668963856995,-1.236343177879462e-05,-8.401786908507347e-05,-5.083433734398568e-06
-0.00017379339260514826,-2.7465770472190343e-05,-0.00012174992298241705,-1.7938974679054809e-06
-0.0001246301835635677,-3.466211637714878e-05,-0.00015950266970321536,2.5312640445918078e-06
-8.971363422460854e-05,-1.927355697262101e-05,-0.00016699021216481924,-6.521965133288177e-06
-1.0648475836205762e-05,3.6067904147785157e-06,-0.00014376510807778686,-3.178830957040191e-05
0.0001165180146927014,1.4131659554550424e-05,-0.00010932539589703083,-5.198079816182144e-05
0.00023315254657063633,7.161199391703121e-06,-6.541940092574805e-05,-6.293787009781227e-05
0.0002652175317052752,-3.51202288584318e-06,-1.4098837709752843e-05,-5.276343290461227e-05
0.00019845232600346208,-1.3839584426023066e-05,2.581487387942616e-05,-1.6174533811863512e-05
0.00010475887393113226,-1.8999848180101253e-05,4.971458110958338e-05,2.4331475287908688e-05
4.5906454033683985e-05,-8.409112524532247e-06,6.547476368723437e-05,4.64842923975084e-05
6.752153694833396e-06,1.1378202543710358e-05,7.269488560268655e-05,5.1396378694335e-05
-8.040799002628773e-06,3.234624091419391e-05,7.37131922505796e-05,4.815306965610944e-05
2.681701516848989e-05,5.65832233405672e-05,7.18966475687921e-05,3.695872874232009e-05
8.737620373722166e-05,7.882210775278509e-05,6.958211452001706e-05,3.163491783197969e-05
0.00014533466310240328,9.736868378240615e-05,5.929675535298884e-05,3.09919414576143e-05
0.00017756813031155616,0.0001103394606616348,4.330056981416419e-05,2.903190215874929e-05
0.00017312490672338754,0.00011283445201115683,3.285582715761848e-05,2.399287222942803e-05
0.00012808370229322463,0.00010784574260469526,2.588367169664707e-05,1.5787023585289717e-05
6.565417425008491e-05,8.913879719329998e-05,1.76589674083516e-05,2.0626566765713505e-05
1.1445337804616429e-05,5.347092519514263e-05,7.810930583218578e-06,5.841629536007531e-05
-2.2532083676196635e-05,1.6319614587700926e-05,2.9747453389461498e-09,0.00011124775483040139
-3.756091246032156e-05,-1.4380725588125642e-06,-4.737386461783899e-06,0.00012633009464479983
-3.9592017856193706e-05,2.5762542463780846e-06,-8.398265890718903e-06,0.00010016478336183354
-3.888540231855586e-05,2.207676152465865e-05,-1.0997747267538216e-05,6.874738755868748e-05
-4.532932143774815e-05,5.3048737754579633e-05,-9.058823707164265e-06,5.1276034355396405e-05
-6.020328146405518e-05,8.255415013991296e-05,-6.473020675912267e-06,4.528638601186685e-05
-8.535496453987435e-05,9.374903311254457e-05,-7.159427696024068e-06,4.229089608998038e-05
-0.00012164638610556722,8.64060057210736e-05,-1.048943249770673e-05,2.8932081477250904e-05
-0.00016198631783481687,7.091225415933877e-05,-1.559258635097649e-05,3.1643146940041333e-05
-0.00019780897127930075,4.890897253062576e-05,-2.3528280507889576e-05,7.84477888373658e-05
-0.0002412558242212981,1.2227256775076967e-05,-3.266785279265605e-05,0.00012927969510201365
-0.000295761477900669,-3.626014949986711e-05,-3.485520210233517e-05,0.00014481498510576785
-0.00036664921208284795,-7.32366243028082e-05,-3.023542922164779e-05,0.00011964965233346447
-0.00045692597632296383,-8.65537513163872e-05,-2.9952992917969823e-05,5.780105129815638e-05
-0.0005476153455674648,-8.072371565504e-05,-3.137406019959599e-05,-1.8734684999799356e-05
-0.0006126592052169144,-5.556310134124942e-05,-1.2135357792431023e-05,-9.028211934491992e-05
-0.000576903868932277,-2.5173500034725294e-05,1.6759722711867653e-05,-0.00012902611342724413
-0.00038974362541921437,1.9440810774540296e-06,1.6151498130057007e-05,-0.00011788130359491333
-0.00016056229651439935,2.5601877496228553e-05,-9.235045581590384e-06,-8.672312833368778e-05
-1.6828491880005458e-06,4.2370931623736396e-05,-3.584282967494801e-05,-4.915191311738454e-05
0.00010044211376225576,5.1510178309399635e-05,-5.6873177527450025e-05,2.3011749362922274e-05
0.0002130850771209225,6.1575643485412e-05,-6.857394328108057e-05,0.00011700845789164305
0.0003605318779591471,8.183410682249814e-05,-6.382130231941119e-05,0.0001693587691988796
0.0004933255258947611,0.00011533934593899176,-4.984872430213727e-05,0.00018317881040275097
0.0005913766217418015,0.0001573274057591334,-4.2058873077621683e-05,0.00020121305715292692
0.0006837458349764347,0.0001913526066346094,-4.2959396523656324e-05,0.00021232057770248502
0.0007111656595952809,0.00019645396969281137,-4.867779716732912e-05,0.0001808775996323675
0.0006008736090734601,0.0001758947764756158,-5.202151805860922e-05,0.00012909846554975957
0.0004084648098796606,0.00014444772386923432,-4.684133091359399e-05,9.929484076565132e-05
0.00024543769541196525,8.491145126754418e-05,-3.3833955967566e-05,9.640788630349562e-05
0.0001487474946770817,-2.769166940197465e-06,-2.2038653696654364e-05,8.491241169394925e-05
9.013798990054056e-05,-6.43942184979096e-05,-1.6396952560171485e-05,5.02369184687268e-05
4.34835565101821e-05,-6.850224599475041e-05,-1.2212149158585817e-05,3.45618391293101e-05
3.5361654227017425e-07,-8.072612399701029e-05,-2.8819358703913167e-06,7.613434718223289e-05
-3.972020567744039e-05,-0.00014471757458522916,1.0030606972577516e-05,0.00014257352449931204
-7.589156302856281e-05,-0.00018202040519099683,1.6236102965194732e-05,0.00017642677994444966
-0.00010533208842389286,-0.00012423349835444242,1.0731139809649903e-05,0.00015573704149574041
-0.00013255755766294897,-6.098664471210213e-06,2.691065219551092e-06,9.130425314651802e-05
-0.00014646825729869306,9.658928320277482e-05,1.7252922646093793e-08,2.081102502415888e-05
-0.00012808048631995916,0.00012547167716547847,9.27275721096521e-07,-2.4396669687121175e-05
-8.965181768871844e-05,7.886747334850952e-05,2.1882817691221135e-07,-3.1216848583426327e-05
-7.215310324681923e-05,1.0316140105715021e-05,-2.6884774797508726e-06,-3.2485677365912125e-05
-8.88429131009616e-05,-3.097377339145169e-05,-9.615674571250565e-06,-5.342845179256983e-05
-0.00011945925507461652,-3.611584543250501e-05,-1.5507477655773982e-05,-6.404782470781356e-05
-0.00013305796892382205,-3.2572101190453395e-05,-1.1555238415894564e-05,-4.670752605306916e-05
-0.00014763131912332028,-3.230054790037684e-05,2.421201088509406e-06,-2.3513668566010892e-05
-0.00017291975382249802,-2.400904668320436e-05,1.797275399439968e-05,-5.124184554006206e-06
-0.0001892351428978145,-7.325816568481969e-06,2.6722827897174284e-05,1.8329335489397636e-06
-0.00020245918130967766,1.4565008314093575e-05,2.4918015697039664e-05,2.1053162981843343e-06
-0.00020050523744430393,3.7050263927085325e-05,1.1894602721440606e-05,8.94151071406668e-06
-0.0001736632693791762,5.6789591326378286e-05,-1.3485204419794172e-07,2.0049756130902097e-05
-0.00013020477490499616,6.902407039888203e-05,-3.3662804526102263e-06,3.0099725336185656e-05
-8.205662743421271e-05,6.990666588535532e-05,1.1962481494265376e-07,4.757737769978121e-05
-3.135425504297018e-05,5.7539658882888034e-05,4.808209268958308e-06,8.528298349119723e-05
3.385122909094207e-05,3.920360541087575e-05,8.455623174086213e-06,0.0001342910254606977
7.850819383747876e-05,2.259876964672003e-05,1.266667004529154e-05,0.0001622750423848629
5.9608784795273095e-05,8.4937319115852e-06,1.469806556997355e-05,0.0001403766218572855
2.3185018562799087e-06,-1.0563116120465565e-05,1.026426070893649e-05,8.755816816119477e-05
-5.841611709911376e-05,-2.8208200092194602e-05,2.0861675693595316e-06,5.11791804456152e-05
-0.00011814191384473816,-2.129013228113763e-05,-3.5446691981633194e-06,5.2813491492997855e-05
-0.00015378030366264284,1.1181249647052027e-05,-7.950723556859884e-06,8.286943193525076e-05
-0.0001455678284401074,4.4177097151987255e-05,-1.7274529454880394e-05,0.00011219918815186247
-0.00011234439443796873,6.453652895288542e-05,-3.0175971915014088e-05,0.00010657197708496824
-6.572734855581075e-05,7.552024180768058e-05,-3.6988083593314514e-05,6.51830923743546e-05
9.63279234156289e-08,6.094765194575302e-05,-3.837088661384769e-05,2.6868270651903003e-05
7.207869930425659e-05,1.2884333955298644e-05,-3.794246367760934e-05,2.0510204194579273e-05
0.00012674072058871388,-3.1286450393963605e-05,-3.4225929994136095e-05,2.9241471565910615e-05
0.00014827454288024455,-3.9491224015364423e-05,-3.128878597635776e-05,2.9005932447034866e-05
0.00013444632350001484,-1.755909397616051e-05,-3.0541163141606376e-05,1.8151436961488798e-05
0.00010890837438637391,1.74951692315517e-05,-2.566940565884579e-05,4.4864705728286935e-07
0.00010742082668002695,3.7830326618859544e-05,-1.3361674064071849e-05,-1.1985459423158318e-05
0.00011987026664428413,3.817972174147144e-05,5.782102903140185e-07,3.0234036785259377e-06
8.781932410784066e-05,3.154835940222256e-05,8.768231964495499e-06,3.405452662263997e-05
-1.1435614396759775e-05,3.359500988153741e-05,5.384999894886278e-06,5.69773546885699e-05
-0.00015013797383289784,3.9856935472926125e-05,-8.325098860950675e-06,6.69733271934092e-05
-0.00027682207291945815,3.461524465819821e-05,-3.113026832579635e-05,7.226350135169923e-05
-0.0003678730281535536,1.3995490917295683e-05,-6.161366763990372e-05,8.775056630838662e-05
-0.00039839965756982565,-7.77340119384462e-06,-8.08076438261196e-05,0.0001075171385309659
-0.0003721286484505981,-1.5056647498568054e-05,-7.939077477203682e-05,0.00011637797433650121
-0.00032173004001379013,-1.0178238881053403e-05,-6.68983266223222e-05,0.00010858145105885342
-0.00025950567214749753,-2.3203418209050142e-07,-5.470841642818414e-05,9.049748769029975e-05
-0.00017163246229756624,7.239684236992616e-06,-5.845206032972783e-05,7.834808639017865e-05
-4.5866650907555595e-05,9.202546607411932e-06,-7.750933582428843e-05,7.909037958597764e-05
8.258670277427882e-05,1.2202336620248388e-05,-9.166383824776858e-05,9.073477849597111e-05
0.00016800846788100898,2.7533356842468493e-05,-8.186331979231909e-05,0.00011089477629866451
0.00020398470223881304,5.1457776862662286e-05,-5.217682337388396e-05,0.00012988096568733454
0.00023057790531311184,6.949962698854506e-05,-2.444656092848163e-05,0.00012619585322681814
0.00027198417228646576,7.283620652742684e-05,-8.169218745024409e-06,9.929054067470133e-05
0.0003053479013033211,6.840871355962008e-05,6.644393124588532e-06,8.758898911764845e-05
0.00028882003971375525,6.511760875582695e-05,2.5417437427677214e-05,0.00011699356400640681
0.0002230025129392743,6.711856985930353e-05,4.221955896355212e-05,0.00015058487770147622
0.00014340886264108121,6.029949872754514e-05,5.0307698984397575e-05,0.00014346597890835255
7.291453948710114e-05,3.035029658349231e-05,4.8580794100416824e-05,0.00010943401866825297
-1.0978477575918077e-06,-1.2501624269134481e-06,4.625757719622925e-05,9.154203144134954e-05
-9.081397001864389e-05,1.5397601600852795e-05,4.779188020620495e-05,0.00011974191147601232
-0.00017873560136649758,6.411167851183563e-05,4.9433932872489095e-05,0.00017075716459657997
-0.000260309549048543,8.897848601918668e-05,4.9563488573767245e-05,0.0001720254513202235
-0.00033389637246727943,7.800819003023207e-05,4.618733873940073e-05,9.608795517124236e-05
-0.00039952280349098146,4.69651713501662e-05,4.342006650404073e-05,-1.5152593732636888e-05
-0.00044744956539943814,1.6453474017907865e-05,4.266325049684383e-05,-0.00010569107689661905
-0.0004437410971149802,-1.4908958291925956e-05,3.520914106047712e-05,-0.00016543595120310783
-0.0003781293344218284,-3.7350640923250467e-05,2.416785719105974e-05,-0.00021741354430560023
-0.00025431549875065684,-3.417570042074658e-05,1.3120645235176198e-05,-0.0002477079106029123
-0.00010289415513398126,-9.567924280418083e-06,6.216870133357588e-06,-0.0002361703518545255
6.110084359534085e-05,1.728499228192959e-05,6.703759027004708e-06,-0.00018159339379053563
0.00024004235456231982,4.314231046009809e-05,1.4361619832925498e-05,-8.226147474488243e-05
0.0004363067273516208,7.05273196217604e-05,2.2971109501668252e-05,5.123444861965254e-05
0.00058574671857059,9.25759959500283e-05,2.7230556952417828e-05,0.00017180030408781022
0.000556792423594743,0.00010252361971652135,2.452750049997121e-05,0.00023434327158611268
0.0003284747654106468,9.740463428897783e-05,1.4055010069569107e-05,0.00022906674712430686
4.89952763018664e-05,8.047622395679355e-05,5.7017835786155047e-08,0.00018779000674840063
-0.00011847644782392308,5.62351597181987e-05,-1.3426246368908323e-05,0.0001551319583086297
-0.00014558853581547737,3.28846181218978e-05,-2.69012034550542e-05,0.00014631255180574954
-9.991716069635004e-05,9.806974958337378e-06,-3.942854527849704e-05,0.00014344521332532167
-3.9373000618070364e-05,-6.079760623833863e-06,-4.112699389224872e-05,0.00013656439841724932
2.8212947654537857e-05,1.7475713320891373e-08,-2.7888025215361267e-05,0.00013362088066060096
0.00010779585863929242,1.7168260455946438e-05,-1.3649967513629235e-05,0.00012967654038220644
0.00019112351583316922,1.3007846973778214e-05,-1.788783811207395e-05,0.00011505345173645765
0.0002188554499298334,-3.977257620135788e-06,-3.792493589571677e-05,9.120075264945626e-05
0.000147093873238191,-7.0180899456318e-06,-5.9254256484564394e-05,7.584484410472214e-05
1.8586364603834227e-05,-3.2840516723808832e-06,-7.032327266642824e-05,6.951032992219552e-05
-7.590831228299066e-05,-1.5439680964846048e-06,-6.648059206781909e-05,5.384541873354465e-05
-0.00010172514157602564,1.0053789083031006e-05,-5.3671759815188125e-05,2.6141415219171904e-05
-9.333548950962722e-05,2.9275426641106606e-05,-4.383953637443483e-05,-1.665711806708714e-06
-8.81337546161376e-05,3.5500848753144965e-05,-3.981002009822987e-05,-1.0125274457095657e-05
-9.441268775844947e-05,2.955277159344405e-05,-3.292972542112693e-05,-2.7300229703541845e-06
-0.00011356061440892518,2.355925607844256e-05,-2.4778328224783763e-05,-1.4272523003455717e-06
-0.00013974003377370536,2.2016329239704646e-05,-2.3100501493900083e-05,-8.450878340227064e-06
-0.00016069237608462572,2.5354469471494667e-05,-1.8546928913565353e-05,-1.4900357200531289e-05
-0.00016743247397243977,2.5824781914707273e-05,-6.784123343095416e-06,-5.96806057728827e-06
-0.0001511086884420365,2.49164950218983e-05,2.255410436191596e-06,1.5113270819711033e-05
-0.00011618855933193117,2.944464904430788e-05,1.6885196600924246e-06,3.555499642970972e-05
-7.683672447456047e-05,3.390222627785988e-05,-8.933239428188244e-07,4.592693585436791e-05
-6.567070522578433e-05,3.492363612167537e-05,1.955502511918894e-06,5.490543117048219e-05
-8.929629984777421e-05,3.486613786662929e-05,3.9524709904981137e-07,7.274121162481606e-05
-0.00012181107740616426,3.450602162047289e-05,-1.7654474504524842e-05,9.380549454363063e-05
-0.00014067500887904316,3.2026397093432024e-05,-4.018504114355892e-05,0.00010761290468508378
-0.00014890519378241152,3.0279310522018932e-05,-4.907838592771441e-05,0.00011375317262718454
-0.0001653530343901366,3.053848195122555e-05,-4.014046862721443e-05,0.00011892981274286285
-0.0001976493513211608,3.147629104205407e-05,-2.019447674683761e-05,0.00012780542601831257
-0.00022959918715059757,3.2913172617554665e-05,3.7546258226939244e-06,0.0001395121798850596
-0.00023518329544458538,3.225715772714466e-05,2.677009251783602e-05,0.00015035537944640964
-0.00020688891527242959,1.971713027160149e-05,4.2579846194712445e-05,0.00015295360935851932
-0.00015387138410005718,-7.7315307862591e-06,4.751619417220354e-05,0.00012852622603531927
-8.834959589876235e-05,-4.874990554526448e-05,4.2459072574274614e-05,8.526126475771889e-05
-1.2826962120016105e-05,-8.339421037817374e-05,3.6266374081606045e-05,5.5327978770947084e-05
8.96258425200358e-05,-7.457545871147886e-05,3.052266765735112e-05,5.5791799240978435e-05
0.00019562609668355435,-3.228737477911636e-05,2.2277317839325406e-05,7.216958329081535e-05
0.00023112459166441113,1.4337402944875066e-06,7.843346793379169e-06,6.793888314859942e-05
0.0002021302789216861,1.87308087333804e-05,-9.214525562128983e-06,3.6824640119448304e-05
0.00018727302085608244,2.7612952180788852e-05,-1.8897277186624706e-05,2.1417439711512998e-05
0.0001963966351468116,2.8631899112951942e-05,-2.07140292332042e-05,3.597767499741167e-05
0.0001853484136518091,2.257610140077304e-05,-1.95118882402312e-05,4.341449312050827e-05
0.0001607650629011914,1.640054142626468e-05,-1.5106158571143169e-05,2.4840195692377165e-05
0.00017734692664816976,1.8768640074995346e-05,-1.2090646123397164e-05,-8.51019876790815e-07
0.00019207614241167903,2.6418307243147865e-05,-1.226922086061677e-05,-9.187288014800288e-06
0.00012241548392921686,3.0840667022857815e-05,-1.2429593880369794e-05,9.253350981452968e-06
2.1587000446743332e-05,2.571725781308487e-05,-9.858436897047795e-06,3.827875116257928e-05
-4.388254092191346e-05,2.3738337404211052e-05,-2.3289073851628928e-06,6.407365435734391e-05
-7.382270268863067e-05,3.724917405634187e-05,7.339453532040352e-06,8.079151302808896e-05
-9.403951844433323e-05,5.6707132898736745e-05,1.2441859325917903e-05,8.308923133881763e-05
-0.0001156609650934115,7.017722964519635e-05,1.2349234566499945e-05,6.351309275487438e-05
-0.00013100514479447156,7.967648707563058e-05,1.1462491784186568e-05,3.820201163762249e-05
-0.00013455995940603316,9.224854875355959e-05,1.0454299626871943e-05,2.4184661015169695e-05
-0.00012974899436812848,0.00010333294630981982,8.936142876336817e-06,2.220712849521078e-05
-0.00012150000111432746,9.649710409576073e-05,5.048400907980977e-06,2.7186519218957983e-05
-0.00010642549023032188,6.753825437044725e-05,-1.0252863376081223e-06,4.408952736412175e-05
-8.514110231772065e-05,3.353053762111813e-05,-4.764423010783503e-06,9.116349247051403e-05
-6.148827378638089e-05,1.0700159691623412e-05,-4.865427854383597e-06,0.00015928248467389494
-4.072001684107818e-05,2.0719505755550927e-06,-4.212592557450989e-06,0.00020151348144281656
-2.560750908742193e-05,-5.887557563255541e-06,-3.1251665859599598e-06,0.00021594254940282553
-2.717283678066451e-05,-2.2867523512104526e-05,-1.504924284745357e-06,0.000248176627792418
-5.287523163133301e-05,-2.7335852792020887e-05,-3.5596176530816592e-06,0.00028668477898463607
-9.731750469654799e-05,3.0071889796090545e-06,-1.0554377695370931e-05,0.0002887113660108298
-0.00015770377649459988,3.5011584259336814e-05,-1.7386100807925686e-05,0.000254737475188449
-0.000227699798415415,2.9866836484870873e-05,-2.086478161800187e-05,0.00022204297420103103
-0.00028522993670776486,-5.993180820951238e-06,-2.233086524938699e-05,0.00019806598720606416
-0.00028939457843080163,-3.472940807114355e-05,-2.7220778065384366e-05,0.00017083215061575174
-0.00021786107390653342,-3.073917832807638e-05,-3.615127570810728e-05,0.00012501623132266104
-0.00011073322093579918,-2.651141221576836e-05,-4.530545629677363e-05,4.832552804145962e-05
-1.3428709280560724e-05,-1.9758001144509763e-05,-5.4015217756386846e-05,-4.391658876556903e-05
5.542102735489607e-05,6.450423825299367e-06,-5.568881897488609e-05,-0.00013397581642493606
0.00011622451711446047,1.8502294551581144e-05,-4.87713587062899e-05,-0.00020929575839545578
0.0001612401829333976,1.972828249563463e-05,-3.97083604184445e-05,-0.00024279665376525372
0.00017238403961528093,4.9814119847724214e-05,-3.277149880887009e-05,-0.00023831149155739695
0.00017508487508166581,9.650809079175815e-05,-3.167926115565933e-05,-0.0002167998463846743
0.00018710469885263592,0.00010903010843321681,-3.456375634414144e-05,-0.0001883111835923046
0.00018429763440508395,6.782322452636436e-05,-4.126445128349587e-05,-0.00015989129315130413
0.00014923025446478277,-1.1884954801644199e-05,-5.0339422159595415e-05,-0.00014559175178874284
9.768074960447848e-05,-7.221792475320399e-05,-5.6093478633556515e-05,-0.00016141646483447403
4.490542778512463e-05,-6.033304089214653e-05,-5.431572571978904e-05,-0.00019051326671615243
1.0815307177836075e-05,2.217900146206375e-06,-4.7262979933293536e-05,-0.00019022374181076884
-9.251193660020363e-06,3.617616312112659e-05,-3.874208778142929e-05,-0.00015001543215475976
-3.242113962187432e-05,-3.266204657847993e-06,-3.534926872816868e-05,-9.579493053024635e-05
-5.661842806148343e-05,-8.35960527183488e-05,-3.7331203202484176e-05,-4.384238854981959e-05
-6.0565500461962074e-05,-0.00012703675020020455,-3.629287675721571e-05,5.611711003439268e-06
-4.884177542407997e-05,-8.832111052470282e-05,-3.0807579605607316e-05,4.6497629227815196e-05
-4.175967114861123e-05,-1.0282885341439396e-05,-2.528401091694832e-05,6.902562745381147e-05
-5.969928315607831e-05,3.828480112133548e-05,-1.887547659862321e-05,8.219665323849767e-05
-0.00011183449532836676,4.074155731359497e-05,-9.034891263581812e-06,9.693660831544548e-05
-0.00016999233048409224,3.203665983164683e-05,6.401614882634021e-08,0.0001129372903960757
-0.00019695115042850375,3.54305375367403e-05,4.903912213194417e-06,0.00013727074838243425
-0.0002061332925222814,4.7732646635267884e-05,1.0332168130844366e-05,0.0001695464743534103
-0.0002267052186653018,6.131585541879758e-05,1.9204449927201495e-05,0.0001779263257049024
-0.00026098842499777675,6.911349191796035e-05,2.6635087124304846e-05,0.00015854301454965025
-0.0002840752713382244,6.92379690008238e-05,2.7941307052969933e-05,0.00014053945778869092
-0.00028822943568229675,5.8403791626915336e-05,2.317986036359798e-05,0.00013570721785072237
-0.00030907258042134345,3.993552309111692e-05,2.4823924832162447e-05,0.00014492979971691966
-0.00032259224099107087,1.869686457212083e-05,3.320022369734943e-05,0.00016051788406912237
-0.00028734406805597246,3.643550826382125e-06,3.840984936687164e-05,0.00015322360559366643
-0.0002526114694774151,-3.6331155115476577e-06,3.302349432487972e-05,0.00011197110143257305
-0.00027082240558229387,-6.745396603946574e-06,2.502584902686067e-05,8.583054295741022e-05
-0.00033404314308427274,4.116460786462994e-06,2.2498677935800515e-05,0.00012375306687317789
-0.0003852949303109199,1.8277365597896278e-05,1.55185152834747e-05,0.00018642412032932043
-0.0003478346625342965,2.3413436792907305e-05,-1.7926614646057715e-06,0.0002159814175684005
-0.00021349251619540155,2.6145073206862435e-05,-2.3512717234552838e-05,0.00019922124920412898
-2.9871114747948013e-05,3.477075006230734e-05,-4.137455835007131e-05,0.00016147136921063066
0.000180080984137021,4.204664219287224e-05,-5.6788216170389205e-05,0.00013528579438570887
0.00042773474706336856,4.1510713344905525e-05,-7.065571844577789e-05,0.00013383070472627878
0.0006661483785137534,3.929997546947561e-05,-8.056763908825815e-05,0.00014084592112340033
0.0008086218731477857,4.5439766836352646e-05,-8.029648597585037e-05,0.00013281533028930426
0.0008295174920931458,5.5775501095922664e-05,-7.059634663164616e-05,0.00011733354040188715
0.0007670487393625081,6.165354716358706e-05,-5.91802854614798e-05,0.00010771123925223947
0.0006715437048114836,6.198135088197887e-05,-4.902738146483898e-05,0.00011463709233794361
0.0005525631713680923,5.6554046750534326e-05,-3.577351526473649e-05,0.00015968897787388414
0.0003845995815936476,5.1807102863676846e-05,-1.439391326130135e-05,0.00021775937057100236
0.0002093305520247668,5.595376205747016e-05,1.2075089216523338e-05,0.00020888684957753867
0.00010464853403391317,6.328155723167583e-05,3.074624692089856e-05,0.00012322959082666785
8.414185140281916e-05,6.778644456062466e-05,3.6199249734636396e-05,3.747051960090175e-05
0.00010219097748631611,6.940736784599721e-05,3.133198697469197e-05,3.459583922449383e-06
9.132769628195092e-05,7.267938053701073e-05,2.4888344341889024e-05,2.793553903757129e-05
2.3684260668233037e-05,8.054701902437955e-05,2.5085779270739295e-05,5.632776810671203e-05
-5.535403033718467e-05,8.425214764429256e-05,2.4705361283849925e-05,2.1194440705585293e-05
-9.699477959657088e-05,8.368506678380072e-05,2.0902674805256538e-05,-4.5335782488109544e-05
-0.00011004222324118018,8.42678127810359e-05,2.0075378415640444e-05,-0.00010126885172212496
-0.00011439596710260957,8.92136013135314e-05,2.1264218958094716e-05,-0.00011987267498625442
-0.0001287411287194118,9.325713472208008e-05,1.76869762071874e-05,-0.00010818129521794617
-0.00014808321429882199,8.511018677381799e-05,1.4912645383446943e-05,-7.008606189629063e-05
-0.00016679074906278402,6.008008494973183e-05,1.8311195162823424e-05,-2.0105984731344506e-05
-0.00017334779840894043,4.1962550312746316e-05,2.0749916075146757e-05,-8.17563159216661e-06
-0.00015790804172866046,5.3013784054201096e-05,1.4327061762742233e-05,-2.255303115816787e-05
-0.0001366084470646456,7.262701547006145e-05,5.370422513806261e-06,-1.4854407709208317e-05
-0.00013544317334890366,6.146070518298075e-05,3.174702669639373e-06,3.337188172736205e-05
-0.00015129188250284642,4.026155875180848e-05,6.032679266354535e-06,8.703536150278524e-05
-0.00015632333816029131,3.812606155406684e-05,5.726080416934565e-06,0.00011226228525629267
-0.00014543428551405668,2.656026481417939e-05,2.0600602965714643e-06,0.00010557485074969009
-0.00013337741256691515,-1.1702899428200908e-05,-1.6852367252795375e-06,8.240182796726003e-05
-0.00012934101687278599,-4.32131600973662e-05,-5.396388587541878e-06,5.797536141471937e-05
-0.00012241362128406763,-3.8080004742369056e-05,-9.314170711149927e-06,4.7872708819340914e-05
-0.00010644058784237131,-1.819166209315881e-05,-1.4637099411629606e-05,5.6174099881900474e-05
-8.590734796598554e-05,-2.6631527362042107e-05,-2.2130665456643328e-05,6.550474790856242e-05
-7.378293230431154e-05,-9.244029206456617e-05,-3.0283656087704003e-05,5.576439798460342e-05
-7.682543218834326e-05,-0.00017178132839035243,-3.650135840871371e-05,3.568063766579144e-05
-8.668805821798742e-05,-0.00016198393132071942,-3.562092751963064e-05,2.492525709385518e-05
-9.042180317919701e-05,-5.909642641199753e-05,-3.0418310416280292e-05,2.5349196221213788e-05
-9.041793964570388e-05,1.839601100073196e-05,-2.934235817519948e-05,3.222267696401104e-05
-8.9308712631464e-05,1.1637302122835536e-05,-2.9310536774573848e-05,4.12313784181606e-05
-8.615387923782691e-05,-1.7139695046353154e-05,-2.817393578880001e-05,3.292255132691935e-05
-7.854345312807709e-05,-8.03295370133128e-06,-2.530824531277176e-05,2.7329624572303146e-06
-7.371144602075219e-05,1.812531627365388e-05,-2.4781393221928738e-05,-1.227523353009019e-05
-6.92714165779762e-05,2.6103596610482782e-05,-2.4912897060858086e-05,8.442641956207808e-06
-6.298345397226512e-05,2.7830943508888595e-05,-2.349778515053913e-05,4.45532969024498e-05
-6.398776895366609e-05,3.609363557188772e-05,-1.9647482986329123e-05,7.47758531360887e-05
-8.518758841091767e-05,3.6031680792802945e-05,-1.5335279385908507e-05,9.258674981538206e-05
-0.00013350941298995167,2.3152786525315605e-05,-9.949917512130924e-06,9.668605343904346e-05
-0.0001908227422973141,1.1260187420703005e-05,-2.888541246193199e-07,9.011637303046882e-05
-0.0002371811424382031,1.0938253581116442e-05,8.446855645161122e-06,8.787273691268638e-05
-0.00028077472234144807,1.3983149074192625e-05,1.2522061297204345e-05,0.0001042303629219532
-0.0003541948099154979,1.8097818610840477e-05,1.8624305084813386e-05,0.00013380551536101848
-0.0004490891587920487,2.3217429770738818e-05,2.94204455713043e-05,0.00015584193170070648
-0.0005354771274141967,2.7843141651828773e-05,3.320093674119562e-05,0.00014705635840073228
-0.0006018159911036491,2.5644425477366894e-05,2.377422606514301e-05,0.00010062920046038926
-0.0006483448087237775,2.0597155526047572e-05,2.9760756206087535e-06,3.8915306504350156e-05
-0.0006608694675378501,2.1006691895308904e-05,-1.7990259948419407e-05,-8.937518941820599e-06
-0.0005901925032958388,2.372737981204409e-05,-3.050934537895955e-05,-3.932157778763212e-05
-0.00040710228495299816,2.6963560230797157e-05,-3.4481978218536824e-05,-6.37496923445724e-05
-0.00014887559518683702,3.1854808185016736e-05,-3.378939436515793e-05,-7.863255450502038e-05
0.00011224998161196709,4.2672800191212445e-05,-3.115800063824281e-05,-6.17953555774875e-05
0.00032581304549239576,5.65580849070102e-05,-2.763337397482246e-05,-1.039235394273419e-05
0.0005028508021496236,7.151126919779927e-05,-1.8839211406884715e-05,4.123474354855716e-05
0.0006984157371334732,8.853203325998038e-05,-6.181612661748659e-06,7.024888327578083e-05
0.0009068534127436578,0.00010435220610816032,2.1506862140086014e-06,8.416484342887998e-05
0.001016804832033813,0.00010870583355426788,3.999350610683905e-06,9.178790787700564e-05
0.0009277309291064739,0.00010426894732518122,5.130028966959799e-06,0.0001041596187860705
0.0007112446473911405,9.515493002254516e-05,1.0881203706958331e-05,0.00011802515655290335
0.0004972959868609905,7.410845864797011e-05,1.4450332855631132e-05,0.00011464348790468648
0.0003407489857636392,4.44086836068891e-05,1.0553973879723344e-05,9.443768067285419e-05
0.00023787964892107993,1.92700645129662e-05,2.299511152159539e-06,8.507441816618666e-05
0.00015804229769855738,1.5959493566697347e-06,-4.0434188122162595e-06,9.248100104741752e-05
9.491868695477024e-05,-3.620968072937103e-06,-1.0593370461720042e-05,9.950681123882532e-05
5.413619146565907e-05,6.145352017483674e-06,-1.6627167497063056e-05,0.0001033747466863133
3.0449189580394886e-05,2.497213972674217e-05,-1.7128086255979724e-05,0.00010681966523407027
-1.2294076441321522e-06,3.0769817385589704e-05,-1.6074061932158656e-05,0.00011016553617082536
-3.2904390536714345e-05,2.5321800421806984e-05,-1.5788709788466804e-05,0.00011077463568653911
-5.317719842423685e-05,2.5616744096623734e-05,-1.5765663192723878e-05,0.000104017679404933
-5.668913581757806e-05,3.2603875297354534e-05,-1.5790776160429232e-05,9.061538730747998e-05
-5.742002394981682e-05,3.990659024566412e-05,-1.559437623654958e-05,7.694021769566461e-05
-6.317836960079148e-05,4.4190543121658266e-05,-1.4334177649288904e-05,6.843321170890704e-05
-7.242419087560847e-05,4.761042509926483e-05,-1.3967542145110201e-05,6.249070429475978e-05
-8.18770713522099e-05,4.6058365114731714e-05,-1.6768191926530562e-05,5.641981988446787e-05
-8.710732799954712e-05,4.141398676438257e-05,-1.957999666046817e-05,5.528957990463823e-05
-9.15431446628645e-05,3.152585122734308e-05,-2.0732581106130965e-05,6.308322190307081e-05
-9.504950867267326e-05,1.76815392478602e-05,-2.1958852812531404e-05,7.593462942168117e-05
-9.592436981620267e-05,1.0627827577991411e-05,-2.3458364012185484e-05,8.653473196318373e-05
-9.351736662210897e-05,1.0444066901982296e-05,-2.1685402316506952e-05,8.742089994484559e-05
-9.874802344711497e-05,-1.0079673302243464e-05,-1.8303937395103276e-05,7.551487942691892e-05
-0.00010732252121670172,-5.5955653806449845e-05,-1.9808705474133603e-05,6.060471787350252e-05
-0.00011614484537858516,-8.85392219061032e-05,-2.4351784304599278e-05,5.1740269555011764e-05
-0.00012434991367626935,-7.338574505411088e-05,-2.637773286551237e-05,4.8326885007554665e-05
-0.00013370910892263055,-1.6724216038710438e-05,-2.606096131785307e-05,4.517217166721821e-05
-0.0001345805067103356,4.509443533606827e-05,-2.6772197088575922e-05,4.410814290167764e-05
-0.00012342032277956605,7.108589488780126e-05,-2.8793390811188146e-05,4.760300362249836e-05
-0.0001081830050679855,6.028410280123353e-05,-2.492102066753432e-05,5.437935396912508e-05
-0.00011727798118954524,4.582816472975537e-05,-9.981095900002401e-06,5.949657133896835e-05
-0.00015221642388496548,3.618178379838355e-05,6.882811703690095e-06,6.113546260166913e-05
-0.0001871340355137363,2.5027597075677477e-05,1.275363774766447e-05,5.440967288450338e-05
-0.00021091195230837911,1.784605956345331e-05,1.4887556972098537e-05,2.9783173886244185e-05
-0.00023418221098836511,1.537239040771965e-05,1.6842121112858877e-05,-1.951499598362716e-06
-0.00026772814453579485,1.306427839153912e-05,1.7223173927050084e-05,-2.308305374754127e-05
-0.0002993473899550736,1.4096797713136766e-05,1.8898534108302556e-05,-2.9779561373288743e-05
-0.00030308650457300246,1.6884889191715047e-05,1.738047467370052e-05,-2.3431997760781087e-05
-0.00027262920048087835,1.739356230245903e-05,1.3378577932599e-05,-1.0102490705321543e-05
-0.00023226579651236534,1.7468933947384357e-05,5.850268735230202e-06,-1.0226495760434773e-05
-0.00019500682537909597,2.08853161893785e-05,-3.0081098429945996e-06,-3.128087701043114e-05
-0.00014971007476560771,2.8993044907110743e-05,-7.1060817390389275e-06,-4.898162660538219e-05
-5.874181806575507e-05,3.964039569837041e-05,-5.64719539397629e-06,-3.380653288331814e-05
8.567675104131922e-05,5.006729770684615e-05,-1.6220576526393415e-06,1.0748529348347802e-05
0.0002012827608268708,5.775344106950797e-05,1.1311640264466405e-05,6.143265636637807e-05
0.00020818301709368825,6.329362076940015e-05,2.5313393052783795e-05,0.0001157913648057729
0.0001568786974530667,6.834555097157136e-05,1.0658892279025167e-05,0.00018118391744792461
0.00013594373012892902,6.387854955391958e-05,-3.7140202039154246e-05,0.0002436231734463945
0.00014288933016359806,3.9467904571210966e-05,-8.783788507571444e-05,0.0002706197265069932
0.00013788380601909012,4.369964585748676e-07,-0.00011520667612785473,0.00024627885431982577
0.00010206156730419025,-2.646432585606817e-05,-0.00011538808030309156,0.0001967182324733585
3.4407985367579386e-05,-1.5251362128765322e-05,-9.593625873094425e-05,0.0001686567993601784
-3.123064379906282e-05,2.3088576199370436e-05,-7.123281829990447e-05,0.00017933579511009157
-6.080458842916414e-05,5.583812526310794e-05,-5.1553710363805294e-05,0.0001953176106326282
-5.5798376706661656e-05,6.641937216045335e-05,-3.601657226681709e-05,0.00018204237858299166
-2.9144721338525414e-05,5.9650439652614295e-05,-1.8985623682965524e-05,0.00015379393880721182
1.2791729204764124e-05,4.132317553739995e-05,-3.816668595391093e-06,0.00014280970208346844
4.6110839321045205e-05,7.680141607124824e-06,-2.0568700165313203e-06,0.00014433458272833377
5.765180685557425e-05,-3.523327177390456e-05,-9.351912012789398e-06,0.00012379697000142187
4.9237365601584315e-05,-6.836072134319693e-05,-1.430512475053547e-05,7.026998355286196e-05
2.410339038760867e-05,-7.320205622818321e-05,-1.502702525613131e-05,-3.7755823996121762e-06
1.8323823951504892e-06,-3.9813454350223765e-05,-1.1326116691634525e-05,-7.383430056506768e-05
-7.218627615657169e-06,2.354389835090842e-05,-5.18045135322609e-06,-8.733218419365585e-05
-9.989002137444913e-06,8.907398296287283e-05,4.062070729560219e-06,-4.061659274157137e-05
-1.7361819118377753e-05,0.0001328333601122722,1.1294172509224154e-05,-1.338369202130707e-06
-2.6578518372843973e-05,0.00014668329095002264,1.5146738405746873e-05,-1.7716317870508647e-06
-3.0470020647044294e-05,0.0001353895349893719,2.1107771317474544e-05,-5.648108071909519e-06
-3.016218397533521e-05,9.735969069879502e-05,2.931776543846354e-05,2.7239490009378642e-05
-3.452246528468095e-05,2.145180587831419e-05,3.2717005524318665e-05,7.624594582011923e-05
-4.559793524094857e-05,-5.588723433902487e-05,2.9058206564513966e-05,0.00010072305303765461
-5.998010601615533e-05,-7.755959086352959e-05,2.605243935249746e-05,8.441023965133354e-05
-7.101197115844116e-05,-4.851883204537444e-05,2.6409339625388384e-05,5.199474253458902e-05
-6.835953536210582e-05,-1.3178228073229548e-05,2.9529826861107722e-05,3.44589825544972e-05
-5.569496352109127e-05,5.131114448886365e-07,3.182459113304503e-05,3.2286159694194794e-05
-4.422365964273922e-05,-2.158660436180071e-06,3.2264841138385236e-05,2.948942346847616e-05
-3.986986121162772e-05,1.438436925127462e-06,3.0607523513026536e-05,1.70284001796972e-05
-4.217322202748619e-05,1.5793508282513358e-05,2.6009824068751186e-05,6.331980330287479e-06
-5.042695556767285e-05,2.5641331376391463e-05,1.7995351299759932e-05,1.2982060070498846e-05
-5.7133314840029925e-05,3.062374526052736e-05,7.310124146897579e-06,3.480387749732472e-05
-5.391921877162531e-05,4.286673356546089e-05,-7.601699394399475e-07,5.2704439440276474e-05
-5.051985863246955e-05,5.329833584255539e-05,-3.824273790087318e-06,5.9614863857859746e-05
-5.3946620028000325e-05,4.782039832207374e-05,-5.605887508863816e-06,6.075550845707767e-05
-5.6633180065546185e-05,3.2870102586457506e-05,-7.044966878311243e-06,5.983666414977051e-05
-5.480390245793387e-05,1.982312824111432e-05,-1.0496057257114444e-05,5.50392760487739e-05
-5.6244010920636356e-05,1.2453852832550183e-05,-1.820951365516521e-05,5.223598054726608e-05
-6.855984247522429e-05,4.520367383520352e-06,-2.4410550395259634e-05,5.514897566172294e-05
-8.426720887655392e-05,-4.509861810220173e-06,-1.8238763004774228e-05,6.393947842298076e-05
-0.00010342714813305065,-1.0985511835315265e-05,-5.442120141196938e-07,7.608831219840795e-05
-0.00013507706171367317,-1.1537073987710755e-05,1.0984740583808161e-05,8.7627129687462e-05
-0.0001730779476929456,-7.471877779607894e-06,1.3149156075087376e-05,9.63540660450235e-05
-0.00021740909141954035,-4.071853254572488e-06,4.754144811158767e-06,9.723918628878891e-05
-0.00028064590878784657,-3.877232302329503e-06,-1.5213868209684733e-05,7.259698759298772e-05
-0.00036007288144901395,-4.5538927224697545e-06,-3.289093729108572e-05,1.9092853108304553e-05
-0.00044026077375747263,1.2824424402424484e-06,-3.5790508263744414e-05,-4.047274342156015e-05
-0.0004932006704621017,1.2169535693828948e-05,-3.0658211471745744e-05,-7.746239862171933e-05
-0.0005027763545513153,2.4272132577607408e-05,-3.0385670470423065e-05,-7.764559268252924e-05
-0.0004814324202015996,2.9736758733633906e-05,-3.1713858334114775e-05,-2.735492125793826e-05
-0.0004428015381563455,2.7653073630062863e-05,-2.9762100894004107e-05,4.279249696992338e-05
-0.0003776892845053226,2.108970693370793e-05,-2.663958730408922e-05,5.2998249884694815e-05
-0.00024817357189022005,1.7619417121750303e-05,-2.4529277652618475e-05,3.444078856773558e-06
-2.6548292225925252e-05,2.1831348931300454e-05,-2.2871850887895562e-05,-3.13834534608759e-05
0.00022052387066651136,2.8549833587021567e-05,-2.399472941760905e-05,-1.952359889401123e-05
0.0003757406957447529,3.219696009182371e-05,-2.918523568951059e-05,1.5854597222642042e-05
0.0004664523003157228,3.338289025123231e-05,-3.335722431074828e-05,5.886105645913631e-05
0.0005915124202147126,3.3351312595186755e-05,-3.7861671444261447e-05,0.00010096486221300438
0.0006805239827372134,2.8542433938127942e-05,-4.930284194415435e-05,0.00013244381989352405
0.0006511829560622573,2.1076966731925495e-05,-6.245728582143784e-05,0.0001470797142246738
0.0005682032788172364,1.9128594431094825e-05,-6.598111940547824e-05,0.0001522410602774471
0.0005061476258561015,2.496105298632756e-05,-5.8662189985625446e-05,0.00015101702592801303
0.0004763381730299443,3.34629112330731e-05,-5.164190588402562e-05,0.00014736242883373052
0.0004227076715324074,4.065465327585116e-05,-4.653362339013256e-05,0.0001588645827723667
0.00033190957037732005,3.8163867429830134e-05,-3.806030144914985e-05,0.0001743268803693354
0.00023932212207000703,3.0260660423664376e-05,-2.5931654818123206e-05,0.0001555501512484625
0.00017515302170068026,2.9402559448499233e-05,-1.535664159746375e-05,9.517542639514431e-05
0.00013438359019346535,3.85286366508808e-05,-4.2263718569302e-06,1.5702367818448693e-05
9.65408471529372e-05,5.6923687225207686e-05,1.2713463547697756e-05,-6.273661711020395e-05
8.770365820964798e-05,7.675034430576488e-05,2.9929708034615032e-05,-0.0001295274414587766
0.00010590476449579,8.814546163193882e-05,4.582868132274598e-05,-0.00016205022984649986
0.00010688169277273118,9.234235039912164e-05,5.704071372747421e-05,-0.0001456446188967675
6.7389257310424e-05,8.796850306680426e-05,5.880592652829364e-05,-0.00010135713819181547
4.320618700148771e-06,7.36983201932162e-05,4.9992017011391e-05,-4.083648673258722e-05
-6.841179128969088e-05,5.382825111155398e-05,3.835821553366259e-05,3.725138958543539e-05
-0.00013766948541160673,2.7566573407966644e-05,2.956680691568181e-05,0.00011299816105747595
-0.00018870072381105274,-3.031309461221099e-06,2.1157407900318503e-05,0.00015437159163411707
-0.00021664987434633076,-2.1541083697229624e-05,1.1586367691052146e-05,0.00015549756062682718
-0.00022441458713728935,-1.771068673406262e-05,2.515124378987821e-06,0.00013716064859181643
-0.0002085277228616178,1.7686951423456776e-06,-4.555487521429313e-06,0.00011853557953145355
-0.00017846441187430173,2.227587356173899e-05,-1.1069211723224726e-05,0.00010029963596025482
-0.000155176647240296,3.123807618976571e-05,-1.6338666682713665e-05,8.605423499830067e-05
-0.00013468512042891234,2.6982692361343652e-05,-1.934300598804839e-05,8.183359750546515e-05
-0.00010382034088252112,2.257481355627533e-05,-2.1425583327072673e-05,8.53040546644479e-05
-6.255944754229859e-05,2.349160422454588e-05,-2.0197783669573255e-05,9.048997890204191e-05
-2.534985469537787e-05,2.5378471036674455e-05,-1.4296095287136268e-05,9.156233136309311e-05
8.939103281591088e-06,2.9732973416685127e-05,-1.0404996828583535e-05,8.748407708480954e-05
3.678525172290392e-05,3.5629014746518806e-05,-1.3730774298892356e-05,8.314099977724254e-05
1.6397121726186015e-05,4.075255856150761e-05,-2.2495030862046406e-05,8.385596447624266e-05
-4.463991353986785e-05,4.549544246401638e-05,-3.091516555286944e-05,8.210657688323408e-05
-9.613551810616627e-05,4.0956252632895485e-05,-4.214545333525166e-05,7.481088687200099e-05
-0.00011788305710069835,2.078162469842937e-05,-5.756651808042079e-05,6.840212154202163e-05
-0.00012258619244676083,4.691424692282453e-06,-5.4547901527257636e-05,6.143171049188823e-05
-0.00014089082833379507,-6.4737901084299665e-06,-2.6464542315807194e-05,4.930745853926055e-05
-0.00018617270688991994,-1.8733577235252596e-05,2.6661791707738303e-06,4.149639426032081e-05
-0.00026653840905055404,-2.7978365324088372e-05,1.4114255463937297e-05,4.4968368456466123e-05
-0.00036626934888772666,-3.3006050216499716e-05,1.5865069144638255e-05,4.788714068126865e-05
-0.000447273749159649,-2.8925182050443254e-05,3.040137562493328e-05,5.163578316569328e-05
-0.000494360167067498,-1.658621840761043e-05,5.126242103870027e-05,8.100561535684392e-05
-0.0005556917749345303,4.0465526041089106e-08,6.190465501276776e-05,0.00011426175478845835
-0.0006714623305015266,6.871704499644693e-06,5.1734325097640976e-05,0.00011662626639008522
-0.0008005073177628219,7.553788918812643e-07,2.4735305487411097e-05,9.495144331594929e-05
-0.0008667858201079071,-5.950670583843021e-06,-1.0879009096242953e-05,6.205233512446284e-05
-0.0008366245310753584,-5.071529358247062e-06,-4.6558310714317486e-05,3.508565714582801e-05
-0.0007276666583493352,3.2947220915957587e-06,-6.852528895251453e-05,3.384557203389704e-05
-0.0005491002229973674,1.2127008631068747e-05,-7.449980330420658e-05,5.668487574439496e-05
-0.0002799109788611531,1.1625327715591993e-05,-7.666784949833527e-05,6.176056922413409e-05
6.554683932336047e-05,2.805013764373143e-06,-8.555302338209003e-05,4.529809666564688e-05
0.00039123272290453315,1.8536614021513742e-08,-9.66907900874503e-05,5.5029388022376224e-05
0.0005890615284442902,9.405478522239719e-06,-0.00010136190394405276,9.76395676843822e-05
0.000683671678416431,2.968902663269546e-05,-9.23668994801119e-05,0.00012717976642306894
0.0007867764215916395,5.225857239565812e-05,-7.478526094928384e-05,0.00012618978507816792
0.0009405675227753818,7.032690336927772e-05,-5.266417429083958e-05,0.00011578508565435186
0.001122292480431497,8.360041829291731e-05,-2.7098030841443688e-05,0.0001210714690387249
0.0012222748482599854,9.439867426408455e-05,-1.8491815581000992e-06,0.00013396066788118333
0.001134608406573534,0.00010304727038601413,2.0558958567562513e-05,0.00011567361070774496
0.0008714417926967144,9.995678556151688e-05,3.5376622690819204e-05,7.041324715828523e-05
0.0005261197802610695,7.92876016930677e-05,4.184113277005963e-05,4.2140982259297743e-05
0.0002513101208023727,6.183791992953047e-05,4.987178908777423e-05,9.76559822447598e-05
7.871046545915306e-05,5.251945185591467e-05,5.939965558354743e-05,0.00019039442122448236
-1.5583191270707175e-05,5.060787589172833e-05,6.375178054440767e-05,0.00019091284775640815
-4.8407480790046975e-05,7.356882997555658e-05,6.455448601627722e-05,0.00011435876513132825
-7.484209345420823e-05,9.955482528312132e-05,6.628742266912013e-05,7.83121504355222e-05
-9.142529597738758e-05,0.0001009227053145878,6.777322414563969e-05,9.176738967653364e-05
-0.0001185013388749212,8.144292223732919e-05,6.62456004647538e-05,7.217270467663184e-05
-0.00016339655849151313,5.4993684898363426e-05,5.991059879306704e-05,1.4150054994388483e-05
-0.0002202339528594166,2.541331559768878e-05,4.769097358803265e-05,-5.954768130322918e-05
-0.0002583708555903286,4.1296792119283054e-07,2.9590961275971495e-05,-0.00013151438906788826
-0.0002643804473336786,-2.2849182641948573e-05,1.019177489069989e-05,-0.00017789247795008123
-0.00022516923490911722,-5.255224459688179e-05,-4.781461029779166e-06,-0.00017870505689643323
-0.00013480584311764687,-7.182460831245407e-05,-1.2438674275472295e-05,-0.00011998505215160549
-3.206517794751562e-05,-5.207934373174794e-05,-1.5301622624974698e-05,-2.7134656193084083e-05
2.5403078325325623e-05,-1.2703350193987717e-06,-1.6349398720194586e-05,5.3778574510943145e-05
3.0309460271382704e-05,4.256551619619131e-05,-1.0947053851850796e-05,0.00010644822032190859
3.0021683414815925e-05,6.157768075354397e-05,-1.4999106952018337e-06,0.00012685731053352356
4.5369517465587705e-05,6.305208808043972e-05,-7.095383836031033e-08,0.00010704012674978003
6.316260987659916e-05,5.5112635891418904e-05,-1.1838855243695434e-05,6.383761501638219e-05
4.702241494669579e-05,4.062469088239595e-05,-2.6911429813480936e-05,3.416373874642886e-05
-2.6638774670573184e-06,2.6527570298640057e-05,-3.675181869766675e-05,3.115068102488294e-05
-5.707678064936772e-05,1.02504154710914e-05,-4.130135857849382e-05,3.458909850451164e-05
-9.686436533229426e-05,-1.0765357728814706e-05,-3.8918347854632884e-05,3.566255691112019e-05
-0.0001260246935999021,-2.893600867537316e-05,-2.0845545805059373e-05,1.5057276868901681e-05
-0.00013911951100453734,-2.7913923986488953e-05,-4.507752692006761e-06,-6.14437522017397e-05
-0.00014135820674709976,-7.548226221842924e-06,-1.109570985136088e-05,-0.00016244989819824696
-0.00013834043056704104,2.6056486603920348e-05,-3.13563177769538e-05,-0.0002027639129664749
-0.00013778450374957174,4.874824662692845e-05,-4.5884149585617706e-05,-0.00012686202535405755
-0.00013828628289047629,4.362505933386274e-05,-5.216105273575522e-05,-5.225840141065419e-06
-0.00014681999164167792,3.140909393550828e-05,-5.8492518292041495e-05,5.7934641517931595e-05
-0.00015417028043884784,3.315152207505889e-05,-6.444827886298299e-05,7.254767115227878e-05
-0.00015501145389862359,4.6654855395900086e-05,-6.491810199804604e-05,7.10649328539148e-05
-0.00016005786892492324,4.380955942906439e-05,-5.7022109103854746e-05,8.135715324897319e-05
-0.00017077969096135348,2.0245117411832325e-05,-4.6322067646542564e-05,9.76643932517618e-05
-0.00017519757966510952,5.825776497658808e-06,-3.421186193008907e-05,0.00010554602340562269
-0.00016526461695320904,1.6234587747021578e-05,-2.6662612071959302e-05,0.00010018714965553954
-0.00014926164294593036,3.213441596017219e-05,-2.6829275157069787e-05,9.119541937252507e-05
-0.0001398290623910725,3.703225593199022e-05,-3.135134465992451e-05,8.859619265422225e-05
-0.00013692550419364125,3.279944940004498e-05,-3.278138683526777e-05,9.18445221032016e-05
-0.00013315092655830085,2.8767995900125243e-05,-3.095897409366444e-05,9.791654156288132e-05
-0.00012429837079253048,2.745474012044724e-05,-2.9115695724613033e-05,0.00010240326082566753
-0.00011187893687747419,2.0922032490489073e-05,-2.462500924593769e-05,0.00010532789747230709
-0.0001041778305079788,1.2793482710549142e-05,-1.565334059705492e-05,0.00010515402391320094
-0.0001011292843031697,9.064736332220491e-06,-1.1501335393404588e-05,0.00010664198634913191
-0.00010326438496122137,1.0586117241473403e-05,-2.843975744326599e-05,0.00010621983528835699
-0.00010609110904624686,1.4663049114460591e-05,-5.656130815623328e-05,0.00010487587860552594
-0.00010707798355724663,1.453990989830345e-05,-6.619004852836952e-05,0.0001015416273730807
-0.00011181627633050084,7.036479019006947e-06,-4.84094925923273e-05,9.736223000800237e-05
-0.00012481363955885172,3.5271064007247332e-06,-1.5060832083690912e-05,8.892363985069096e-05
-0.00013209210010245442,9.85770566330757e-06,2.8746317184413783e-05,8.161229925462976e-05
-0.00013853430573362857,1.162140142696444e-05,6.793387728976086e-05,8.472087210975587e-05
-0.0001739074068609625,8.995672942546662e-06,8.692959818290547e-05,9.479103027842939e-05
-0.00023843046801630408,1.3475726518663578e-05,8.508653991157189e-05,9.457267879042774e-05
-0.0002998648560605943,2.727656283241231e-05,7.149940211093053e-05,8.492299093632028e-05
-0.00035484423278830945,3.8504134863615036e-05,5.0221362471347675e-05,6.6161977883894e-05
-0.00042669009417295456,3.098866363870911e-05,2.0727555238408968e-05,4.385551073937677e-05
-0.000525522162206471,1.069335121428594e-05,-9.075317393580917e-06,3.313247361802496e-05
-0.0005679166642948985,2.5219155759259593e-06,-3.082418697886169e-05,2.775905522867106e-05
-0.00046804023440927267,1.1997364708804525e-05,-4.83398798678536e-05,1.74334054463543e-05
-0.00024921103613451123,1.861598138930276e-05,-6.716285133734345e-05,4.052888016303768e-06
2.915258301072754e-05,5.717673502658727e-06,-8.001156675163656e-05,-9.2578820840572e-06
0.00029172509675845504,-2.0030496671097353e-05,-8.046289440244436e-05,-5.243135547061684e-06
0.000505479983985424,-2.3088565285434015e-05,-7.126579293981194e-05,1.2251159205334261e-05
0.0007004542276263237,5.832967872265726e-06,-5.428967415355146e-05,3.787325113080442e-05
0.0008392441086471081,4.020964843221009e-05,-3.316066067782231e-05,7.14766574674286e-05
0.0008239323506131768,5.101098577142693e-05,-1.759358201525174e-05,0.00010048836702480912
0.0006248772260732949,3.996135637862608e-05,-1.4572768122889102e-05,0.00011423679097788408
0.0003591705171857029,3.253345130360685e-05,-1.9925308151869103e-05,0.00011499776155687869
0.0001696577965049073,3.369400292285718e-05,-2.6449266442796215e-05,0.00011404130782466382
9.341430995846167e-05,3.337936141178943e-05,-2.7728372515412048e-05,0.00011250423995079473
7.36123911337927e-05,2.5584460672689602e-05,-2.0144292648183182e-05,0.00010911291610682383
5.670875543728471e-05,1.9383955077501014e-05,-6.516132543765707e-06,0.00010321196168661118
3.19154751196038e-05,2.523310286051128e-05,1.0174546332564205e-05,9.972345287678763e-05
6.841648882982554e-07,4.373603587737307e-05,2.310016134288162e-05,9.680535731604323e-05
-3.312431726953946e-05,6.343458517221734e-05,2.8027625376125798e-05,9.778817184269428e-05
-6.674088217550889e-05,7.158856169553474e-05,2.8081431082682684e-05,9.933589171851054e-05
-9.604236402083188e-05,6.630903226323426e-05,2.8425827622413635e-05,9.830021008383483e-05
-0.0001146571448771283,5.5814303777879104e-05,2.841217428795062e-05,9.309415327152237e-05
-0.00011252696276642382,4.6355125959962606e-05,2.3416580006596632e-05,8.735455048736185e-05
-0.00010617690713843331,3.8797374145360664e-05,1.7950307665159926e-05,7.816813740646467e-05
-0.00010507889237487689,8.791987056611106e-06,1.708730633254163e-05,6.491471140179783e-05
-0.00010127182758878917,-4.026211172458716e-05,1.3273297554405872e-05,5.037539085606113e-05
-8.403523679589853e-05,-7.098299101926386e-05,3.368408215465024e-06,3.954562998842448e-05
-6.12705698586069e-05,-6.129963730927557e-05,-2.8014317194902105e-06,3.641875446191989e-05
-4.234254447510466e-05,-1.9465935110929422e-05,-2.293217676196946e-06,3.609175837482326e-05
-3.0367720682988875e-05,1.7944730643648654e-05,-3.379555437277304e-06,3.1148676498560235e-05
-2.0017258066218346e-05,3.067477882723324e-05,-7.110285878297873e-06,2.2980211724643596e-05
-1.044349937728839e-05,2.6090552637469955e-05,-8.306687050207984e-06,2.241031870653387e-05
-1.0050809578387998e-05,2.134983333235141e-05,-3.6886733596475096e-06,2.8817024940508418e-05
-2.370434594922699e-05,2.1445790480356663e-05,2.640329967107391e-06,3.544854553183541e-05
-4.061722938786261e-05,2.549100281612482e-05,2.899707624237635e-06,4.403350976645015e-05
-5.0232858484378085e-05,2.8244156055734493e-05,-4.3897907744394615e-06,5.271572445053607e-05
-5.5524469644296914e-05,2.595522892079316e-05,-1.103814247471746e-05,5.702452835976146e-05
-5.889524982194416e-05,1.8998613086296245e-05,-1.1394017747079488e-05,5.732236968469806e-05
-6.098814992583357e-05,1.0218361239822116e-05,-1.0050175660580862e-05,5.5180258641485125e-05
-6.391148053808138e-05,7.937655936984811e-07,-1.2912948477605823e-05,5.377781781135127e-05
-6.81695673847571e-05,-4.99913494422799e-06,-1.9093977243755944e-05,5.481017069541849e-05
-6.952720286790282e-05,3.697320607898291e-06,-2.3166061509982683e-05,5.443832196760923e-05
-6.722470425302163e-05,2.431236134725623e-05,-2.1277417545206845e-05,5.160086584510282e-05
-6.0839760408271104e-05,4.080259895999916e-05,-1.1825250112451613e-05,5.033405250287615e-05
-5.116226748214103e-05,4.569918382912874e-05,2.0832558220718056e-06,5.124130620970391e-05
-4.195472502033226e-05,4.8407182475784793e-05,1.1505359907459933e-05,5.693714047083631e-05
-3.6228859244147316e-05,5.761039938079193e-05,1.202709972858429e-05,6.414588278857991e-05
-3.213455784134567e-05,6.433208181988448e-05,5.904761565034278e-06,6.668476271443069e-05
-3.308087616460398e-05,4.796187567990273e-05,-3.7741395431112323e-07,6.457718700403348e-05
-3.705513518070802e-05,7.502630523958942e-06,-4.780474682775093e-06,5.8709199947770685e-05
-4.305916445446201e-05,-2.9830167477484792e-05,-8.678056474309415e-06,5.222892286838032e-05
-4.786438148585148e-05,-4.111218731850386e-05,-1.3085238606436178e-05,5.1867034926544875e-05
-4.342929969425313e-05,-2.0302073608036153e-05,-1.5160063412622549e-05,5.244982457952574e-05
-3.6494515370577574e-05,1.784038067853544e-05,-1.1493058082123753e-05,5.361918738344684e-05
-3.385470699868165e-05,5.353058804757893e-05,-1.0725651918619405e-05,5.785797111457214e-05
-3.4476859582355246e-05,7.731580990366638e-05,-1.3010310794925317e-05,5.996491017867811e-05
-3.746918810065836e-05,8.39074346004054e-05,-1.558065378048923e-05,6.023243986419402e-05
-3.985717557952739e-05,7.691852079005912e-05,-1.838371463236399e-05,6.0750167904188856e-05
-4.3119947804370895e-05,6.173273141030222e-05,-2.1123991245985962e-05,5.9423349739518017e-05
-4.374068521428853e-05,4.409116809256375e-05,-2.041011248365976e-05,5.808289279229939e-05
-4.4212123611941934e-05,3.115831714239903e-05,-1.7051070244633593e-05,6.100244354456663e-05
-4.48818136646878e-05,2.606769157864619e-05,-1.4159947568259668e-05,6.652018055319786e-05
-4.220799746690318e-05,1.8359996829531156e-05,-1.422609875589842e-05,6.777911039534956e-05
-3.577145253075287e-05,-4.6993500291137025e-06,-1.824801802285947e-05,6.455286347772926e-05
-3.1666037102695554e-05,-3.24500615533907e-05,-2.227114964625798e-05,6.285087147261947e-05
-3.469990406301804e-05,-4.2387993744341657e-05,-2.2230491595109925e-05,6.307118019321933e-05
-3.946947617805563e-05,-3.274624395999126e-05,-1.8793600247590803e-05,6.139186734799296e-05
-4.125240593566559e-05,-1.7402828234480694e-05,-1.777434954419732e-05,5.9385172789916396e-05
-4.120788798900321e-05,-6.505242708954029e-06,-2.0056157154613174e-05,5.826528649777174e-05
-4.274868842912838e-05,-4.344837634562282e-06,-2.4033493900788017e-05,5.802938176202588e-05
-4.35361907875631e-05,-5.767603852291359e-06,-2.6063939003506675e-05,5.533740113605745e-05
-4.068533598911017e-05,7.156672836572398e-07,-2.4027725885389373e-05,4.725647158920765e-05
-3.749561437871307e-05,1.1914245078514796e-05,-1.789501948223915e-05,4.0354931115871295e-05
-3.597102841013111e-05,2.4539649530197494e-05,-1.09854781840113e-05,3.960934918723069e-05
-3.249624205636792e-05,4.143049955018796e-05,-7.623411420354387e-06,4.2608502553775907e-05
-2.8785421818611212e-05,5.221042738412507e-05,-7.241616458486533e-06,4.6273908083094284e-05
-2.4643724827910773e-05,5.159355350770056e-05,-4.816188265976962e-06,5.179860454518348e-05
-2.3137827156460844e-05,4.7738561988808215e-05,1.0192774198003463e-06,5.940386472502723e-05
-2.203884105256293e-05,4.9326306907460093e-05,1.084788436855888e-05,6.41233564238064e-05
-1.3337498785404023e-05,5.386296834331006e-05,1.4733239368069917e-05,6.494334957096726e-05
-1.2053077398377354e-06,6.023099922458641e-05,1.0361155545979273e-05,6.710379238938913e-05
4.849228389502969e-06,4.61139134131372e-05,3.42233170158579e-06,6.966085493331775e-05
2.4097432742564706e-06,-9.924324331223033e-06,-5.759045507147675e-06,6.784240395063534e-05
-6.7331102400203235e-06,-6.201447104103863e-05,-1.5963800251483917e-05,6.384676089510322e-05
-1.623922071303241e-05,-6.397157994797453e-05,-2.4634970031911507e-05,6.0702423070324585e-05
-2.240965113742277e-05,-1.7439124349039048e-05,-2.7351610697223805e-05,5.574947499553673e-05
-2.3849257559049875e-05,4.3794396333396435e-05,-2.753753688011784e-05,5.195480480324477e-05
-2.1893760276725516e-05,7.344501500483602e-05,-2.595770092739258e-05,4.984926636097953e-05
-1.8955530322273262e-05,5.844619226991199e-05,-2.553257581894286e-05,4.863227150053717e-05
-1.6925963791436516e-05,2.6412557417643256e-05,-2.6220286599709652e-05,4.916863326798193e-05
-1.4682294022350106e-05,1.1940936019527726e-05,-2.426056016702205e-05,5.438606967800297e-05
-1.4551019376085605e-05,2.1447365725180134e-05,-1.7069771274691448e-05,6.351991032715887e-05
-2.1028628907515667e-05,3.8778747693868354e-05,-7.250013368320651e-06,7.079092029016465e-05
-3.0771156161790714e-05,4.881785571342334e-05,-9.036554047270329e-07,7.236566307255998e-05
-3.607426697271876e-05,5.150237848283723e-05,7.204721441667061e-07,6.892840610817075e-05
-3.171421485603787e-05,5.101986971567385e-05,2.6435811832925538e-06,6.258693611016497e-05
-2.1231744540273212e-05,5.437606887426227e-05,9.29343696043361e-06,5.8424971939530224e-05
-1.1926718798349611e-05,6.570271216332912e-05,1.643317227717489e-05,5.849314038641751e-05
-7.83604264142923e-06,7.671718776691705e-05,2.0441417291294783e-05,5.812507151858881e-05
-6.924974968569586e-06,7.42531701689586e-05,2.3116677766665816e-05,5.501775740412995e-05
-6.611648132093251e-06,5.545780004467815e-05,2.0259440134395845e-05,4.9291080358671024e-05
-1.0442367056384683e-05,3.460412335698493e-05,7.846022526791785e-06,4.682119470089674e-05
-2.02361788979033e-05,2.2001629986334592e-05,-7.55938162910752e-06,4.791601168108173e-05
-2.713118738029152e-05,1.78762184077641e-05,-2.251438309031073e-05,4.561949026538059e-05
-3.0982093448983505e-05,1.084642735804664e-05,-3.276509596616961e-05,4.2565749026834965e-05
-3.4872533433372155e-05,-2.396908939772402e-06,-4.023742440040223e-05,4.039429404656403e-05
-3.5009470593649894e-05,-4.185325906291837e-06,-4.350042945588939e-05,4.012453064206056e-05
-3.3711523428792134e-05,5.060535386292031e-06,-4.2260089685441926e-05,4.579389133141376e-05
-3.7170149880694225e-05,1.9542438167263754e-05,-4.163181074545719e-05,5.2068080549361184e-05
-4.133057882427238e-05,3.563356585800648e-05,-3.6717810871778056e-05,5.422626418294385e-05
-4.199684553896077e-05,4.3546318920562044e-05,-2.8331764042377472e-05,5.2873772801831365e-05
-3.966410076827742e-05,4.0889652154874057e-05,-2.1009427655371837e-05,5.100654743728228e-05
-3.826602187473327e-05,3.272620233474299e-05,-1.6038997273426503e-05,4.681263453676365e-05
-3.7926682125544176e-05,3.187839320162311e-05,-1.1866686691064388e-05,4.443563011591323e-05
-3.7158879422349855e-05,3.276368443039246e-05,-7.664332770218607e-06,4.3807194742839783e-05
-3.458073115325533e-05,2.8722459319396876e-05,-2.3552843231300358e-06,4.305175389163196e-05
-2.9070683012832887e-05,2.5712790375109762e-05,6.190633484948194e-06,4.538801658782177e-05
-2.310378295078408e-05,2.7272220904706046e-05,1.6944939488894306e-05,5.313970541465096e-05
-1.807352055038791e-05,1.5591911505907774e-05,2.2766060283174738e-05,6.414101517293602e-05
-1.5171199265751056e-05,-1.2327458534855396e-05,1.888715269160457e-05,6.988815584918484e-05
-1.5673786037950777e-05,-3.0154344131005928e-05,9.731357749842573e-06,6.807313911849633e-05
-1.529506698716432e-05,-2.086914173560217e-05,-1.887522557808552e-06,6.837416003691033e-05
-9.880154721031431e-06,2.6143004561163252e-06,-2.1564914277405478e-05,7.396985893137753e-05
-3.268540240242146e-06,1.7463680705986917e-05,-4.3231179006397724e-05,7.860641926527023e-05
-9.604376600691467e-07,2.2824202460469678e-05,-5.096093809697777e-05,7.926966645754874e-05
-4.166443432040978e-06,3.0661474738735706e-05,-4.266155883669853e-05,7.581202225992456e-05
-9.606018466001842e-06,3.875649781548418e-05,-2.8195079721626826e-05,7.355528941843659e-05
-1.5544917914667167e-05,3.8462592783616856e-05,-1.3164752090233378e-05,7.347694918280467e-05
-1.9776820408878848e-05,3.601168282330036e-05,2.7537614641914843e-06,7.377369183814153e-05
-2.347692679904867e-05,2.915781078627333e-05,1.322462412645109e-05,7.53274725866504e-05
-2.5869296223390847e-05,2.0936427972628735e-05,1.8076600099448115e-05,7.861442281864583e-05
-2.708242209337186e-05,1.757901191012934e-05,2.5655399440438487e-05,7.849503890611231e-05
-2.728141043917276e-05,2.9707527573918924e-05,3.64453335350845e-05,7.511609146604314e-05
-2.1588375602732413e-05,5.0044647650793195e-05,3.8786813092883676e-05,7.297947013285011e-05
-1.4995365745562594e-05,4.149601954850368e-05,1.3338852113520261e-05,7.307706982828677e-05
-1.6440893887192942e-05,5.028859959566034e-06,-3.316874790471047e-05,7.120166992535815e-05
-2.2786127374274656e-05,-2.6761988920043223e-05,-6.952778494451195e-05,6.40840080450289e-05
-2.908682836277876e-05,-3.063629992539063e-05,-7.74534055381082e-05,5.9314959798939526e-05
-2.8451229809434153e-05,-3.877948529407149e-06,-6.081314495531842e-05,6.513501284644008e-05
-2.537106047384441e-05,2.952528120658826e-05,-3.921794632333331e-05,7.543391257058829e-05
-3.0251447242335416e-05,4.10718894272577e-05,-1.7443826436647214e-05,8.148404594976455e-05
-3.802674837061204e-05,3.056784044019878e-05,1.0049327102024108e-05,8.333137520821765e-05
-4.06393337470945e-05,1.7165490135084838e-05,3.8913130993023515e-05,8.033194171730429e-05
-3.5632368962978944e-05,1.7043576008290984e-05,6.688448775094002e-05,7.315245602512732e-05
-2.333045267732814e-05,4.8282716306857765e-05,0.00010254278458887711,6.64413018967025e-05
-6.127402684796834e-06,0.0001047794648911804,0.00012729268928524107,6.238425703486428e-05
1.2455975593184121e-05,0.0001433294382877648,0.00010376740101492032,5.988025804981589e-05
2.568448326201178e-05,0.00013269299233797938,3.495943019515835e-05,5.8614994486561045e-05
2.6190145945292898e-05,9.858983685262501e-05,-3.408575139474124e-05,5.982174479868263e-05
1.8430970158078708e-05,7.96070380602032e-05,-6.67430940666236e-05,6.17315890849568e-05
1.2122399311920162e-05,7.669840124435723e-05,-6.644862151006237e-05,6.42983868601732e-05
