-2.0769146431121044e-05,6.543053314089775e-05,3.4822445741156116e-05,5.7320474297739565e-05
-2.2788408386986703e-05,5.0565635319799185e-05,2.773983396764379e-05,5.824137770105153e-05
-2.4189519535866566e-05,4.052862641401589e-05,2.258399581478443e-05,6.150078115751967e-05
-2.331955147383269e-05,4.14885398640763e-05,2.9346871087909676e-05,6.101762846810743e-05
-2.1667885448550805e-05,4.566943607642315e-05,3.722534529515542e-05,5.771057476522401e-05
-2.171360029024072e-05,3.3386699215043336e-05,4.0569160773884505e-05,5.510192931978963e-05
-2.6580739358905703e-05,1.4324630683404393e-05,3.782940984820016e-05,5.720889748772606e-05
-2.964454506582115e-05,7.125577212718781e-06,2.932676397904288e-05,6.181840581120923e-05
-2.5884131900966167e-05,1.3698999282496516e-05,2.0959692847100087e-05,6.311917240964249e-05
-2.0486431822064333e-05,2.412598223600071e-05,1.5287883798009716e-05,5.886458893655799e-05
-1.9671018890221603e-05,2.6869820430874825e-05,1.1619075849012006e-05,5.553357186727226e-05
-2.262502493977081e-05,2.2172871467773803e-05,8.442419130005874e-06,5.9605859860312194e-05
-2.4597993615316227e-05,9.310465429734904e-06,3.434041673244792e-06,6.37585180811584e-05
-2.4633400244056247e-05,-5.829423116665566e-06,-1.743073335092049e-05,6.398878758773208e-05
-2.3242851966642775e-05,-1.168346352642402e-05,-5.344966848497279e-05,6.279123772401363e-05
-2.229274105047807e-05,-2.0552151909214444e-06,-7.592653128085658e-05,6.047841816325672e-05
-2.1554194972850382e-05,1.6524230886716396e-05,-6.543177732964978e-05,5.910203617531806e-05
-2.0456946003832854e-05,4.0324535802938044e-05,-3.24824832205195e-05,6.035999103914946e-05
-1.8957111024064943e-05,6.865212344564497e-05,4.661898742597259e-07,6.208067497937009e-05
-1.87221903615864e-05,9.513233817415312e-05,2.1836123778484762e-05,6.318834493868053e-05
-1.704854003037326e-05,0.00010906456736847758,3.1399307772517204e-05,6.253337051020935e-05
-1.259997679881053e-05,0.00010692635260056704,3.3928066841326654e-05,5.8085475757252425e-05
-6.845209099992644e-06,8.402961975662038e-05,3.0552433599950746e-05,5.067514575785026e-05
-5.572078862314811e-06,3.0543516913894564e-05,2.4661167117301375e-05,4.8202520702034235e-05
-1.3007566849410068e-05,-4.5807697460986674e-05,1.7729435057844967e-05,5.2834220696240664e-05
-1.9949362467741594e-05,-8.334786252817139e-05,6.5265362536592875e-06,5.834937110194005e-05
-2.4052016669884324e-05,-4.575684943119995e-05,-6.84960832586512e-06,5.783647793577984e-05
-2.603832763270475e-05,2.5208570150425658e-05,-1.6214989955187775e-05,5.187303031561896e-05
-2.3481032258132473e-05,6.507673242595047e-05,-2.1971425667288713e-05,5.037013761466369e-05
-2.404981387371663e-05,6.312770710792392e-05,-2.5915234800777398e-05,5.3114181355340406e-05
-2.7350275559001602e-05,5.4513177019543946e-05,-2.8012802431476302e-05,5.3147770813666284e-05
-2.74367648671614e-05,5.2871684601996094e-05,-2.939722799055744e-05,5.298422911437228e-05
-2.708525789785199e-05,6.0645208577625453e-05,-3.1671152100898325e-05,5.519538899534382e-05
-2.6160923880524933e-05,5.774163582827896e-05,-3.338889291626401e-05,5.579199569183402e-05
-2.7466407118481584e-05,4.494133827392943e-05,-3.311718683107756e-05,5.052350024925545e-05
-3.2218897104030475e-05,2.8862339604529552e-05,-3.1232935725711286e-05,4.614724821294658e-05
-3.5015284083783627e-05,1.9038971004192717e-05,-2.9403387088677846e-05,4.770595842273906e-05
-3.5286295315017924e-05,2.0361254428280517e-05,-2.630293238325976e-05,5.3743249736726284e-05
-3.5332588595338166e-05,2.7564496122067794e-05,-2.462391603330616e-05,5.908214006922208e-05
-3.6025678127771243e-05,3.24031752825249e-05,-2.489764301571995e-05,5.986572432448156e-05
-3.358638423378579e-05,3.176125028403476e-05,-2.136351031367667e-05,5.739920379710384e-05
-3.0729661375517026e-05,2.978507473017089e-05,-1.6943216905929148e-05,5.248103479971178e-05
-2.8838685466325842e-05,2.371053778915666e-05,-2.2236032236833125e-05,5.251471884548664e-05
-2.6325398721382953e-05,1.7922955521498807e-05,-3.636642941273749e-05,5.89794508414343e-05
-2.370545371377375e-05,1.4550470950780436e-05,-4.68169164378196e-05,6.209280400071293e-05
-2.1312020180630498e-05,1.0946244401566219e-05,-5.0110931624658406e-05,6.0387872508727014e-05
-2.0725332433357835e-05,2.3909103674668586e-06,-5.1270541007397696e-05,6.073617987567559e-05
-2.3840280846343376e-05,-9.598795259080362e-06,-5.479485116666183e-05,6.315337668638676e-05
-2.815888547047507e-05,-2.8329768611001782e-05,-5.7309040130348876e-05,6.51313312118873e-05
-3.106277290498838e-05,-4.365755739854649e-05,-5.1860766689060256e-05,6.537939771078527e-05
-3.1804211175767705e-05,-5.245234933681786e-05,-3.922266841982491e-05,6.487207429017872e-05
-3.0036604584893212e-05,-5.367447738535702e-05,-2.556440631451551e-05,6.528288940899074e-05
-3.084526179009117e-05,-4.448124309419654e-05,-1.3819706509821117e-05,6.725784623995423e-05
-3.278502481407486e-05,-2.8571625080076046e-05,-4.983101007383084e-06,6.766348087694496e-05
-3.242413004045375e-05,-8.788360901235137e-06,3.0543610591848847e-06,6.21458311798051e-05
-2.846340612450149e-05,1.6545955077162944e-05,1.391312343912432e-05,6.000013672746718e-05
-2.485633194737602e-05,5.08383491251152e-05,2.3752001652610488e-05,6.453834066633135e-05
-2.215533640992362e-05,8.58165803947486e-05,2.942026185337454e-05,6.528812809847295e-05
-2.2230302420211956e-05,0.00011119701230200008,3.2583222491666675e-05,6.424577441066504e-05
-2.4768807634245604e-05,0.00012508337385952473,3.329687751829624e-05,6.416506948880851e-05
-2.6439771318109706e-05,0.00011894325871253386,3.076521898037754e-05,6.228609709069133e-05
-3.184326851624064e-05,8.250301470980048e-05,2.2476771846413612e-05,5.790451177745126e-05
-3.507543442538008e-05,3.0092125598457642e-05,1.3220368600741494e-05,5.1833198085660115e-05
-3.260638186475262e-05,-1.8931866634375183e-06,3.046342726520379e-06,5.07502154505346e-05
-2.9786097002215683e-05,-5.660548140440369e-06,-3.368467105246964e-06,5.764817979070358e-05
-2.6447456548339687e-05,-1.8305637468074565e-06,-3.5337732242624043e-06,6.47421256871894e-05
-2.1909729184699245e-05,-3.3312669529550476e-06,-4.731286026071757e-06,6.697252683807164e-05
-1.976857311092317e-05,-8.694339157955255e-06,-7.776655365887564e-06,6.60713849356398e-05
-1.9724453522940166e-05,-1.5309371519833803e-05,-1.0765779734356329e-05,6.235440378077328e-05
-1.889720260805916e-05,-2.1486373952939175e-05,-1.2118397535232361e-05,5.9550344303715974e-05
-1.7997876057052054e-05,-1.4206554624252021e-05,-1.1677203474391717e-05,6.337559898383915e-05
-1.780473394319415e-05,1.0165599633182865e-05,-8.918994353734888e-06,6.847896293038502e-05
-2.0055633285664953e-05,4.298752173781395e-05,-4.618256298272172e-06,6.902555469423532e-05
-2.2905684090801515e-05,7.234051736304536e-05,2.221770046162419e-06,6.602450594073161e-05
-2.4054679670371115e-05,8.058819366851822e-05,9.94792026176583e-06,5.956753739155829e-05
-2.596174272184726e-05,6.1007642216281965e-05,1.585860809427686e-05,5.544316445593722e-05
-2.7186044462723657e-05,2.952975410153158e-05,1.7092488633352332e-05,5.808286368846893e-05
-2.495224543963559e-05,3.157086894134409e-06,1.4590782484447118e-05,6.064429908292368e-05
-2.1617133825202473e-05,-1.2695992154476698e-05,1.125684502767399e-05,6.144012877484784e-05
-1.8104588889400475e-05,-2.4546201530029066e-05,5.426758889370831e-06,6.356297672027722e-05
-1.7523892893223092e-05,-2.229437268397305e-05,9.633062063585385e-07,6.615687016164884e-05
-2.0316809241194278e-05,2.227685854450101e-06,5.057370799477212e-06,6.701765960315242e-05
-2.5592393285478465e-05,2.8148597266408615e-05,1.1517236089275684e-05,6.883970490889624e-05
-2.8412652682163753e-05,4.089939102414064e-05,8.873981641954742e-06,7.737864507362247e-05
-2.305159068782814e-05,4.674663068726659e-05,-3.3151448519674886e-07,8.459389937343076e-05
-1.7802160073188134e-05,5.3451436542673036e-05,-6.291953923209803e-06,8.57135237311013e-05
-1.6434101780760102e-05,6.598816980840638e-05,-9.153379323834088e-06,8.341087959706783e-05
-1.8079805158777162e-05,7.397909939754754e-05,-1.293227069254499e-05,7.907682447694242e-05
-2.251389560115058e-05,7.081349031068385e-05,-1.7429125364287756e-05,7.353689579758793e-05
-2.8761132853105664e-05,5.770889401901513e-05,-2.0061452232766896e-05,6.930594827281311e-05
-3.4019692975562066e-05,4.476256071939133e-05,-2.1614529032376595e-05,6.949614908080548e-05
-3.596954047679901e-05,3.959429159294814e-05,-2.4531687813578174e-05,7.327301136683673e-05
-3.486523200990632e-05,4.6993838623166084e-05,-2.795316140691284e-05,7.662469579372555e-05
-3.421684232307598e-05,6.738306547049433e-05,-3.142737477901392e-05,7.591390749439597e-05
-3.518872836139053e-05,8.504951256327331e-05,-3.868665226036683e-05,7.153319893404841e-05
-3.450884105404839e-05,9.016331023303792e-05,-4.803739648195915e-05,6.470106745837256e-05
-3.22646701533813e-05,7.768028444843367e-05,-5.2828338084509596e-05,5.77127757424023e-05
-3.278853910160251e-05,4.242944487486966e-05,-5.209446680964902e-05,5.150652941665612e-05
-3.506182474666275e-05,-1.7349191693938337e-05,-5.035558933741413e-05,4.52000240329653e-05
-3.432208904996514e-05,-6.944032793398947e-05,-4.812369661522098e-05,4.056188481627032e-05
-3.194962118868716e-05,-7.049970008665696e-05,-4.2272349674021825e-05,3.906523488694802e-05
-3.058618676732294e-05,-2.7660749765345827e-05,-3.528614979586564e-05,4.079869904671796e-05
-3.284184276708402e-05,1.051574872690253e-05,-2.9570801416411996e-05,4.5031451008981094e-05
-3.5572913475334644e-05,2.4036969989538193e-05,-2.3710786990704946e-05,4.720269498648122e-05
-3.530210233293474e-05,2.4030126951402053e-05,-1.5968811567290686e-05,4.519768845057115e-05
-3.333411586936563e-05,2.401247911620885e-05,-4.613074452208821e-06,4.202637865091674e-05
-3.194326563971117e-05,2.1756304704467766e-05,7.996231033757795e-06,4.1686438635224476e-05
-3.308761370135471e-05,2.1561480025411583e-05,2.486031235093833e-06,4.313803219702095e-05
-3.336511508678086e-05,2.352489718759898e-05,-2.9863842428312637e-05,4.3443731556180865e-05
-3.311811451567337e-05,1.7328100511804223e-05,-5.241702820057981e-05,4.429825276019983e-05
-3.120897963526659e-05,8.769270607444923e-06,-3.557355375960469e-05,4.515451655606739e-05
-2.6866655389312655e-05,9.685480108601041e-06,3.2925991035881452e-06,4.303633977542631e-05
-2.6085257559316233e-05,2.211829814768862e-05,3.0234143196139485e-05,3.936146094929427e-05
-2.6971258193952963e-05,3.085708522121422e-05,2.775208486127667e-05,3.7995483580743894e-05
-2.4736269551794976e-05,2.9966466172481887e-05,1.1357548828527797e-05,4.049843118991703e-05
-2.028809831244871e-05,2.502656752767507e-05,2.8046395073033636e-06,4.1737115680007264e-05
-1.7327070963801816e-05,2.8337079129414633e-05,6.114512416388607e-06,4.1966293792938814e-05
-1.9653234630823135e-05,3.594354711822234e-05,1.1147395525767934e-05,4.197320231469348e-05
-2.690434666874353e-05,3.581556666176766e-05,1.0276825378241483e-05,4.157758303335868e-05
-3.3285065001109615e-05,2.6715702915680595e-05,2.2740784970665118e-06,4.130813613301143e-05
-3.8208949263207614e-05,2.031119220191613e-05,-7.331796950893477e-06,4.349637674749829e-05
-4.104571053176187e-05,3.1510786357102916e-05,-1.837836862250697e-05,4.81286842841655e-05
-3.928099977201782e-05,5.518195393960923e-05,-3.6018245737068355e-05,5.1713788707274944e-05
-3.422810186748393e-05,7.777959399390966e-05,-5.696541484212503e-05,5.494477954925969e-05
-3.148475298075937e-05,9.09588488866575e-05,-6.498698348877952e-05,5.679289824911393e-05
-3.2060859666671604e-05,9.240859071724117e-05,-5.08834928041324e-05,5.5814802180975676e-05
-3.313617344247177e-05,8.280375914182514e-05,-2.2803640604251996e-05,5.5291526223300025e-05
-3.642961382865906e-05,6.19330967310816e-05,5.454980055219494e-06,5.7705725339474156e-05
-4.217190871713683e-05,3.132351048407145e-05,2.201447932748124e-05,5.879416858078912e-05
-4.192984852124937e-05,2.072541027686725e-09,3.145555092487484e-05,5.659041562466882e-05
-3.240198930143379e-05,-2.520276939321775e-05,4.024462396046147e-05,5.622747994493693e-05
-2.391771886323113e-05,-3.4729055187199265e-05,2.861127541109454e-05,5.646180215990171e-05
-2.1738502255175263e-05,-4.705644096247852e-05,-1.6098691048682667e-05,5.5856246035546064e-05
-2.1446436221594922e-05,-8.107482426567003e-05,-5.165833135833964e-05,5.7500867114868015e-05
-1.5587173038511537e-05,-0.00010227788152405992,-5.205408888286911e-05,5.7024350098799914e-05
-8.050674296100624e-06,-7.778861618135124e-05,-3.205308166798204e-05,5.881453034817241e-05
-7.434295184793882e-06,-2.6492885808693245e-05,-7.301413916138699e-06,6.153721187729388e-05
-1.1690373867168091e-05,9.747614058142062e-06,1.7869644580059685e-05,6.318234227364883e-05
-1.3968645362183452e-05,4.239801000949228e-06,4.4479940697783604e-05,6.151975685497746e-05
-1.1828456081275363e-05,-3.0482138754450716e-05,6.590916018467396e-05,5.722316927858628e-05
-9.477902494836599e-06,-3.546307925716974e-05,7.36052606953308e-05,5.517737736226991e-05
-9.308170774602331e-06,5.544215127883945e-06,6.609889533137903e-05,5.6416010920656845e-05
-8.76306148711592e-06,5.060807598056272e-05,5.025579230277799e-05,5.744463123846799e-05
-6.9248208092176355e-06,6.893037789268419e-05,3.4486616641515866e-05,5.6024742661975324e-05
-5.0264125093235634e-06,7.61777555453591e-05,2.6404901291243732e-05,5.797400444862433e-05
-5.443134796223603e-06,8.19221168057993e-05,2.316981044714339e-05,6.285667041083798e-05
-9.492159733781591e-06,7.344793993979692e-05,1.842695019149687e-05,6.543516792589799e-05
-1.4695640857098624e-05,6.096525976317935e-05,9.385929843119811e-06,6.114491407060996e-05
-1.7253831174457446e-05,5.8612044085748494e-05,9.241758789357846e-07,5.554958261200227e-05
-1.7606644178158604e-05,5.54657744942233e-05,-4.7750386329425965e-06,5.5075382988434285e-05
-2.0583716832334176e-05,3.232536619179882e-05,-9.799499821383506e-06,6.184977246448398e-05
-2.6637011615093797e-05,-9.859322744887322e-06,-1.5928448192426004e-05,6.840957212261856e-05
-2.9438475394272245e-05,-5.759680425398983e-05,-2.168175342376344e-05,6.822874274803326e-05
-2.70752098003868e-05,-8.748348045628518e-05,-2.4464185116812587e-05,6.455864786403254e-05
-2.1188865503063425e-05,-7.383284537354484e-05,-2.5380293664056808e-05,6.357505480991676e-05
-1.4802674741076771e-05,-1.3551522897614632e-05,-2.7046018658438697e-05,6.609920092159882e-05
-1.7056807337212376e-05,6.674062024103478e-05,-3.0458208129857667e-05,6.840317655587569e-05
-3.222706072847359e-05,0.0001443276269128546,-3.346784069435671e-05,6.911769014550373e-05
-5.1662675105035305e-05,0.00020124006550759077,-3.6564975744113326e-05,6.707321881549433e-05
-6.188177940202877e-05,0.00021095550619065762,-3.92415895476006e-05,5.994154707877897e-05
-5.569019049289636e-05,0.00015492406964767724,-4.159959644312039e-05,5.219057493377477e-05
-4.047371112392284e-05,4.887656541541219e-05,-4.196174631942995e-05,4.84762858832255e-05
-1.9594323021010496e-05,-6.507551006507128e-05,-4.3684718548320234e-05,5.252353003015742e-05
-9.871099564406904e-07,-9.778876119526103e-05,-4.1183528082910925e-05,6.240025686565787e-05
3.475062385405181e-06,-4.951945447828621e-05,-2.8757638574461453e-05,6.715404742863029e-05
-1.4823648371020681e-06,-9.003642844618298e-06,-2.2312558940029703e-05,6.796756497351453e-05
-9.446941476198845e-06,2.656733840922243e-06,-2.176491034333594e-05,6.895343540236354e-05
-1.643778341531288e-05,-1.777888428478036e-06,-1.7509208191768266e-05,6.871324876556173e-05
-1.9704877558979206e-05,-2.250663783343043e-06,-1.863419674918987e-05,6.393912190105766e-05
-1.53589753608685e-05,3.245865173084894e-06,-2.3899614461697638e-05,5.7372300943825394e-05
-1.1870531125168782e-05,1.4174126590660308e-05,-2.8766107789124362e-05,5.150311335455626e-05
-1.593564957147464e-05,2.3894810510682873e-05,-3.126364026684314e-05,4.9356764066033065e-05
-2.3618678824277595e-05,3.228364585083909e-05,-2.911107185354922e-05,5.385164695326239e-05
-2.880702231777832e-05,3.486791320028715e-05,-2.5305522285634652e-05,5.842252357979305e-05
-2.857618164853193e-05,3.47244058502838e-05,-2.4566361389588565e-05,5.949831029283814e-05
-2.43599515670212e-05,3.645112519734539e-05,-2.6502826585783623e-05,5.8565921790432185e-05
-2.2384800104191527e-05,3.706201459863223e-05,-2.588371171441395e-05,5.7322340580867603e-05
-2.5797062335186638e-05,3.511646355036646e-05,-2.3002463422017172e-05,5.563946979236789e-05
-2.8324846425675787e-05,3.6219065805198625e-05,-2.2556481781066395e-05,5.39468637725804e-05
-2.6489884476177394e-05,4.213951251585968e-05,-2.9084942070767283e-05,5.144577153259888e-05
-2.1130086679477245e-05,4.551275196718052e-05,-3.700603701872751e-05,5.2589919505408034e-05
-1.710886681394186e-05,4.642257044906728e-05,-3.738942905329168e-05,5.772881195298396e-05
-1.709711978037376e-05,4.2041683627758175e-05,-3.027469756489154e-05,5.9691068599931896e-05
-2.0532232156256214e-05,3.325597936054692e-05,-2.47223288170062e-05,5.737645551562309e-05
-2.424504782538861e-05,2.0729812604258768e-05,-2.1565596398431808e-05,5.5561431508976966e-05
-2.4518032660125755e-05,1.4936640582163818e-05,-1.7008394934237003e-05,5.5605902161914855e-05
-2.2940348571864888e-05,1.4372045370691922e-05,-1.206413253385108e-05,5.600539952865802e-05
-2.4069038772722706e-05,9.400127964909188e-06,-1.4501953046419658e-05,5.749184492742643e-05
-2.4882172510842793e-05,1.2835324696425232e-06,-2.497770037734881e-05,5.857890209881589e-05
-2.2221505787456408e-05,-2.6705160962592345e-06,-3.348516838741489e-05,5.9462228819029406e-05
-1.954716026375536e-05,-4.9792133722803555e-06,-3.564410508261062e-05,5.800294820801355e-05
-1.9486185919959098e-05,-3.41731197295303e-06,-3.574076254153624e-05,5.6245487940032035e-05
-2.150519867427647e-05,3.807678467637743e-06,-3.655288674053736e-05,5.628754661302082e-05
-2.411696914350614e-05,1.2951997632626444e-05,-3.361960261827335e-05,5.987381882732734e-05
-2.6371795684099197e-05,2.0609822968253866e-05,-2.5937488317140378e-05,6.448869680752978e-05
-2.782957562885713e-05,2.4776481950539164e-05,-1.528267966932617e-05,6.548320379806682e-05
-2.7755966584663838e-05,2.1191157429711893e-05,-9.172533737000776e-07,6.438096897909418e-05
-3.0364699341589585e-05,1.6499725461471826e-05,1.5937821444822475e-05,6.249306170502678e-05
-3.3546304621268064e-05,1.9723227524082176e-05,3.0290639188024215e-05,6.366190063999966e-05
-3.52741262759082e-05,2.9538590752054006e-05,3.7367528420872986e-05,6.832650979049504e-05
-3.530470348778181e-05,3.876415576087311e-05,3.8210648199310526e-05,7.052359433146194e-05
-3.3216627343790606e-05,4.31128719355911e-05,3.796522651100531e-05,6.948527152417228e-05
-3.121651752735488e-05,4.1288680222351104e-05,3.7466012145159766e-05,7.003717473708093e-05
-3.0431681807385758e-05,3.507165820337832e-05,3.6531091609504074e-05,7.201489643193781e-05
-3.284350168542005e-05,2.8540167477331124e-05,3.503088737488724e-05,7.362940232269466e-05
-3.633027517935261e-05,2.424269769107923e-05,3.3739190257620066e-05,7.49089740565978e-05
-3.726788054336794e-05,2.6233508833684027e-05,3.289519008831121e-05,7.524557440774515e-05
-3.594461304601282e-05,3.6436707887332886e-05,2.9628698030137457e-05,7.610998000018299e-05
-3.5156939702574164e-05,4.897794497082941e-05,2.3340900952462107e-05,7.959618960740045e-05
-3.529627792886458e-05,5.2225062972866e-05,1.4296807421487756e-05,8.329457341460511e-05
-3.795825978158973e-05,4.704217644757591e-05,7.313089554372709e-06,8.357530168723315e-05
-3.882656164932996e-05,3.935574568458833e-05,4.532290859060595e-06,7.907108374638483e-05
-3.485295019345358e-05,3.682809619931504e-05,6.012442668179574e-07,7.090355211403221e-05
-2.5848581572063267e-05,3.472128082648851e-05,-4.230903414281784e-06,6.40688231214881e-05
-1.9674940631375648e-05,2.9363556677708402e-05,-6.290266810538014e-06,6.156344898045063e-05
-1.9287215764052235e-05,2.5940189516404644e-05,-4.58850718132453e-06,6.132424459792674e-05
-2.1309899238985963e-05,3.0088016501395032e-05,-3.3061094200093066e-06,5.922434138483368e-05
-2.6944962883135304e-05,3.127217132714577e-05,-6.722357284161262e-06,5.281773701426573e-05
-3.207676491001621e-05,2.3051583411870524e-05,-1.2314832019910682e-05,5.080959454062395e-05
-3.3701526263030246e-05,1.118878662964562e-05,-1.2062892892572563e-05,5.383937241276726e-05
-3.486407149466686e-05,-2.99865564556967e-06,-6.39761810816708e-06,5.569573477259837e-05
-3.611813735915348e-05,-1.658520159253385e-05,9.448106652598653e-08,5.636136120301671e-05
-3.5707071219803765e-05,-2.3340038751484826e-05,3.46487126989814e-06,5.547148975892924e-05
-3.6719124182127416e-05,-1.3968447092338465e-05,-1.1606400676100748e-06,5.3084248065715656e-05
-3.868242492899299e-05,1.04419141280232e-05,-6.771251264581224e-06,4.9291142204310745e-05
-4.049516064696945e-05,3.811059650615789e-05,-8.768511179368943e-06,4.5089003833709285e-05
-3.980231849709526e-05,4.762772368849255e-05,-9.0932117018383e-06,4.5765504182782024e-05
-3.72602698917035e-05,3.9773563912604004e-05,-8.017370419111103e-06,5.2258277719374746e-05
-3.487447975203395e-05,3.444560570642352e-05,-7.68260179029312e-06,5.890427200938575e-05
-3.2661329896654934e-05,3.975865547545254e-05,-1.2717428944597486e-05,6.215051689650863e-05
-2.789569589367602e-05,4.5996806875336915e-05,-2.1797452063765377e-05,5.985821917420253e-05
-2.4161719920812175e-05,4.8785077524371445e-05,-3.271776586188935e-05,5.658726877300069e-05
-2.386338746873662e-05,5.764749221270904e-05,-5.277065065456554e-05,5.55209735466633e-05
-2.4863946237019263e-05,6.390711496351287e-05,-7.882368663558736e-05,5.418663931777701e-05
-2.682066769921221e-05,5.4512453061761335e-05,-8.677451842231676e-05,5.2136652811896056e-05
-2.958541881525889e-05,3.677731365314685e-05,-6.700700760120526e-05,4.9940834287554026e-05
-3.1005598430056125e-05,2.8200800443300977e-05,-4.321720916777849e-05,4.613244527718052e-05
-2.831954952853266e-05,2.554460479586851e-05,-3.4189542930107564e-05,4.1686191252665594e-05
-2.4523684260202572e-05,1.9011484255315736e-05,-2.695249713724479e-05,4.190561594441533e-05
-1.9798975699814036e-05,1.3146176570444368e-05,-5.616658654616913e-06,4.5263117499416694e-05
-1.7543008652864955e-05,1.1634297152340878e-05,1.3253868019091897e-05,4.561708919936791e-05
-2.115816459991038e-05,4.02054502046667e-06,1.0977464626193978e-05,4.4940396037418395e-05
-2.4576189389335923e-05,-1.842664096329827e-05,-6.6172683546028566e-06,4.7837384045124054e-05
-2.2433523554354906e-05,-3.460990046733059e-05,-2.3681350285187364e-05,5.5363227147608995e-05
-2.0540332116070203e-05,-3.069601007155143e-05,-2.549238888605032e-05,6.0811813455075026e-05
-2.1014726371504366e-05,-2.481843148416374e-05,-1.656414860917721e-05,6.247825513128191e-05
-2.2747035473003052e-05,-1.5120205716812052e-05,-4.631518550013425e-06,6.163326906971633e-05
-2.8184911570861004e-05,8.074956525661037e-08,7.325004844460636e-06,5.715579754905775e-05
-3.243089668103494e-05,7.3206906563427765e-06,1.4735290278622415e-05,5.400315785664134e-05
-3.2745188946137205e-05,1.0619359272823203e-05,1.5104383237485308e-05,5.2218736527720466e-05
-3.3872001949930564e-05,1.8763590560411103e-05,6.7516348281060345e-06,5.035127105657011e-05
-3.4823759051505476e-05,2.8557215046021156e-05,-5.311727591106319e-07,5.023946505389176e-05
-3.530289541231468e-05,3.520374957588501e-05,1.1345318853273056e-06,5.115997919347137e-05
-3.430874858167954e-05,4.2990868678316474e-05,7.112889306881698e-06,5.0227190513396636e-05
-3.269853550591506e-05,5.576964031206444e-05,1.3828474038746208e-05,4.849039760301821e-05
-3.237478813389316e-05,7.174961501732469e-05,2.044155917246826e-05,4.908800110570155e-05
-3.526874570525251e-05,8.582589362049475e-05,2.2218093363335356e-05,5.384066389524378e-05
-3.881166776409373e-05,9.546004730509594e-05,1.926241020555608e-05,5.7681085309013724e-05
-3.5890927392756566e-05,0.00010086437396239489,1.4958210158511065e-05,5.7662531617097557e-05
-2.547713665990159e-05,0.00010552690946497023,1.1077921953983605e-05,5.76054590055719e-05
-1.4552975699189119e-05,0.00010566873970674351,5.939595666859532e-06,5.9673431678675115e-05
-1.042576514009852e-05,9.179983317153528e-05,-1.8775175476548611e-06,6.374256918206811e-05
-1.1869895388372242e-05,6.0747679526684806e-05,-1.0262886462442111e-05,6.496831338154152e-05
-1.3124756151228212e-05,1.5652522051823325e-05,-1.8323180484003387e-05,5.993482409394346e-05
-1.2685396541201044e-05,-5.4683125199517235e-05,-2.5324034140794538e-05,5.367013727664016e-05
-1.4044208910490852e-05,-0.00013312968076206744,-2.7260031856712885e-05,5.335117020877078e-05
-2.062034582195338e-05,-0.00014732345880474895,-2.353676791244652e-05,5.665246499120258e-05
-2.8208842195454054e-05,-8.538939437130466e-05,-2.3156695533543825e-05,5.724026414100081e-05
-3.2304043998010457e-05,-1.6692209101165645e-05,-4.375963908387348e-05,5.810296715935692e-05
-3.558394018909894e-05,1.399938264512457e-05,-9.406866593053564e-05,6.117563316365704e-05
-3.501831815810874e-05,5.058974693383789e-06,-0.00014660716988146305,6.451900117099285e-05
-3.343198113725521e-05,-1.475408862461336e-05,-0.00014878815272822976,6.806556484661996e-05
-3.1009349186206236e-05,-1.9832579710055143e-05,-9.795173536986113e-05,6.736795330652967e-05
-2.9835964596713893e-05,-7.545590960944537e-06,-3.4410557418596e-05,5.879783202544786e-05
-3.1949766707839444e-05,5.778234026365681e-06,1.8875844034482725e-05,5.168313145986758e-05
-3.408497650525533e-05,2.26892211685481e-06,5.16526706633158e-05,5.167312338016927e-05
-3.061171810259111e-05,-1.4134257071418688e-05,6.775772635592148e-05,5.3877782193012536e-05
-1.9805042029474862e-05,-2.8355005269986577e-05,7.300051220227033e-05,5.5053216783562675e-05
-7.233240467030555e-06,-2.8201968234498054e-05,7.350269879680127e-05,5.396027336246334e-05
-2.052436684607528e-06,-1.570359199831728e-05,6.677600322291255e-05,5.452096593216993e-05
-1.0555978406046052e-05,3.8069185848144116e-06,5.2780218538828194e-05,5.8716243074741215e-05
-2.338381455047056e-05,2.6314268325222656e-05,3.817425749730319e-05,6.287554424488917e-05
-3.10152281599585e-05,4.683759470935911e-05,2.8480280889198184e-05,6.361171836033463e-05
-3.3314121537841856e-05,6.015209874021821e-05,2.1611904230667278e-05,6.342614506138489e-05
-3.28200330841355e-05,7.206176815088838e-05,1.4535989976138808e-05,6.266069249249995e-05
-3.099112291238271e-05,8.052829798543826e-05,7.616760740347672e-06,6.051341551938094e-05
-3.206186738680117e-05,7.784106128383428e-05,-2.9946349400233885e-07,5.9767960919998586e-05
-3.487082358333282e-05,5.726910239900462e-05,-7.996615750016645e-06,6.12394287600182e-05
-3.382730938028544e-05,2.922742896771524e-05,-1.3885828593629412e-05,6.292703619692475e-05
-2.8722581191686913e-05,2.8545899112941697e-05,-1.658710971241817e-05,6.235751061467454e-05
-2.460395080561284e-05,5.973096995148808e-05,-1.9318164049764164e-05,6.118939927546307e-05
-2.4943747121142223e-05,8.854745101416484e-05,-2.3679125661146827e-05,6.19435595581308e-05
-2.883400520659052e-05,0.00010100747022079304,-3.0013869036338292e-05,6.015423059579916e-05
-3.081932300119661e-05,0.00010352955723647028,-3.134680082439445e-05,5.5131698900368065e-05
-3.1854859116720036e-05,0.0001083565439330414,-2.8343491067062132e-05,5.320963464328088e-05
-3.410176941542886e-05,0.00011791926954174414,-2.821111775119789e-05,5.260728357825428e-05
-3.717050276463851e-05,0.00012274358596187085,-3.4433742257533595e-05,5.3104213293408975e-05
-3.681081216200255e-05,0.0001221544371219352,-4.3112529965583235e-05,5.503874126588926e-05
-3.164268855471164e-05,0.00010827289224835113,-4.354493285063654e-05,5.562638762057759e-05
-2.1997608200763352e-05,7.979040674399585e-05,-3.8248752389336005e-05,5.710971527150832e-05
-8.077444363152608e-06,5.3494655730901286e-05,-3.4632936149137095e-05,5.957824032520875e-05
-1.0751031140898704e-06,3.8162303098943084e-05,-3.076127904932946e-05,6.022339584887959e-05
-5.321497610566439e-06,2.090728776238393e-05,-2.761121686489787e-05,5.9983016399201006e-05
-1.2787175364792347e-05,-4.0123700273397844e-06,-2.7442543796496466e-05,6.196034519234672e-05
-1.692628393357154e-05,-2.9005448595853522e-05,-2.8631244276766665e-05,6.181828211992979e-05
-2.355777360207867e-05,-3.6681172787211835e-05,-2.6192765290034004e-05,5.828594294143841e-05
-2.8026521249557845e-05,-2.6626094040693715e-05,-1.9376097043277696e-05,5.478843013406731e-05
-2.6076824724441394e-05,-1.132178476836998e-05,-1.2003398296656087e-05,5.147716365172528e-05
-2.193240106862504e-05,-1.5717901078460272e-06,-9.030301043821964e-06,4.9508387746755034e-05
-2.216958273493219e-05,6.315425707725808e-06,-9.257841156795621e-06,5.043078999733552e-05
-2.696161209314596e-05,1.6387260984629393e-05,-9.216856597049627e-06,5.548548506340012e-05
-2.769427010207437e-05,2.2761745640309528e-05,-1.0344746442569885e-05,5.8439054555492476e-05
-2.1968073269817978e-05,2.6444326067576185e-05,-1.2382557542878203e-05,5.633579712593928e-05
-1.7167723854072392e-05,3.733245830517262e-05,-1.3145866432751063e-05,5.579164644586854e-05
-1.9972074369434267e-05,5.007826257497072e-05,-1.569955566083081e-05,5.631928434013389e-05
-2.5417013603146188e-05,4.3709460442187265e-05,-2.220251553808339e-05,5.610994776361622e-05
-2.692771886358969e-05,2.0155883248662576e-05,-2.3723312551737763e-05,5.884438724024221e-05
-2.2381485905498266e-05,-2.0350773866084637e-06,-1.7981748897000216e-05,6.363328429870307e-05
-1.647068165766541e-05,-1.4415508303500246e-05,-1.2890097423223779e-05,6.715289055136964e-05
-1.4364156413648743e-05,-1.8945996998809278e-05,-1.4215009286999702e-05,6.601599307032302e-05
-1.549203625472728e-05,-1.664049705141224e-05,-1.800479367375374e-05,6.084610868128948e-05
-1.7614420357858762e-05,-1.248914486495778e-05,-1.6298154150717892e-05,6.0352496802806854e-05
-2.2309737687464803e-05,-5.936922661931021e-06,-1.0763886166387238e-05,6.349018076434731e-05
-2.4522694729967043e-05,-2.082621449517319e-06,-6.360281076922547e-06,6.466099875979125e-05
-2.2191028619999997e-05,1.7799852685129736e-06,-3.4724910165095935e-06,6.317290535662323e-05
-2.2616921341978014e-05,1.1678529517666902e-05,-7.716188861195405e-07,6.244385440368205e-05
-2.5429229935980402e-05,2.3471457097912207e-05,-2.2030276340956334e-06,6.623861554544419e-05
-2.465880970703438e-05,3.0332535970956087e-05,-5.556767064263113e-06,6.750843022018671e-05
-2.202751966251526e-05,3.2286181522067636e-05,-4.32285514762043e-06,6.589721306227148e-05
-2.2783977328799665e-05,3.2132422347785905e-05,-2.846591087291017e-06,6.633144948864356e-05
-2.5106674002017826e-05,3.046983874810394e-05,-4.598159080160258e-07,6.96286151651293e-05
-2.283711546624545e-05,2.2162452296470292e-05,2.980536237373599e-06,6.884771573822945e-05
-2.2202155378181487e-05,1.396311472490197e-05,6.10758888797136e-06,6.514832784887403e-05
-2.4859626137185842e-05,1.7661222955211997e-05,7.261790415213909e-06,6.423520244425163e-05
-2.63925212493632e-05,3.279662269051187e-05,8.091705240076408e-06,6.220881914487109e-05
-2.5474922949797474e-05,4.4431879359763116e-05,8.273947969428264e-06,5.9238733228994533e-05
-2.4823861167533323e-05,2.9053249818389304e-05,5.576970124820946e-06,5.7209934311686084e-05
-2.5177070710924454e-05,-2.5720446501509286e-06,2.3655768472963246e-06,5.826235064887442e-05
-2.5317305698990822e-05,-2.1960206140647642e-05,2.627863750603865e-06,6.0311027482384816e-05
-2.4231296265497804e-05,-2.1847627067472786e-05,6.031448265275685e-06,6.131031841505319e-05
-2.2010754037182778e-05,-1.9006783986696973e-05,7.551309408881934e-06,6.191877764649689e-05
-2.1649873815476894e-05,-1.9920118575100787e-05,7.660433766432106e-06,6.120168836787343e-05
-2.292497083544731e-05,-1.7072308764909394e-05,7.489663857995765e-06,5.901984332012944e-05
-2.5378829377586953e-05,5.970860428305969e-08,4.679288849729346e-06,5.7020359236048535e-05
-2.761288487818092e-05,3.765362635022029e-05,-3.278877557022497e-06,5.685934593202546e-05
-2.7447982574813068e-05,8.642195462016389e-05,-1.362123748549493e-05,5.849089939147234e-05
-2.427644722047262e-05,0.00011940240074181929,-1.8952521713799797e-05,5.803233216283843e-05
-2.24416762648616e-05,0.00010954815661534667,-1.1682227523124311e-05,5.7226068747695535e-05
-2.1439444026327692e-05,5.879171658307314e-05,-5.9624430832627695e-06,6.051271702744998e-05
-2.3710745153948665e-05,-7.018334144959226e-06,-2.7217120077693835e-05,6.231631414266303e-05
-2.7056083126808517e-05,-4.8848924052435905e-05,-6.771049811504781e-05,5.849503941135481e-05
-2.386416781519074e-05,-6.596917955903336e-05,-9.187102114083245e-05,5.513137875823304e-05
-2.2568592612515204e-05,-7.979280781000853e-05,-8.413122850470245e-05,5.305567174218595e-05
-2.7914458769373596e-05,-8.776144386501983e-05,-5.967141260043718e-05,5.063042408437468e-05
-3.224990359740332e-05,-8.808303391560912e-05,-3.183542503393255e-05,5.131489524501376e-05
-3.353913052706048e-05,-7.067300612106919e-05,-7.03880959918024e-06,5.2117215091129765e-05
-3.1821437005419284e-05,-3.2065363484434783e-05,1.2978270206076559e-05,4.910843199468218e-05
-3.0950439395383e-05,1.8420058040646836e-05,2.7606982257566415e-05,4.668936526286416e-05
-2.9173006623750553e-05,6.184307130752131e-05,2.7964002583757974e-05,4.575161437969655e-05
-2.6874258765019476e-05,8.804880053503439e-05,2.082015089399647e-05,4.662590436055325e-05
-2.5597588319214992e-05,0.0001021709103952162,1.7702574041322805e-05,4.920113497064449e-05
-2.643493098730687e-05,0.00011150851787533611,1.5503570466535166e-05,5.012005567550659e-05
-2.6556675948086195e-05,0.00011518002429511398,8.01264468464069e-06,5.093677100376226e-05
-2.3219676222652197e-05,0.00010722245497163385,-2.101000688981003e-07,5.3234220104059204e-05
-1.8902739611803554e-05,9.07939684111625e-05,-5.756413884228095e-06,5.75203011976555e-05
-1.7978269170271233e-05,6.879941065562889e-05,-9.640258213039488e-06,6.141296762507409e-05
-2.160414442187175e-05,4.290256401873194e-05,-1.1351059583830647e-05,6.445923645514995e-05
-2.517962821002584e-05,1.1000592166965362e-05,-1.2298192814341746e-05,6.444025348173454e-05
-2.584661888249684e-05,-1.7627173292567022e-05,-1.595220237504691e-05,5.8982859627576545e-05
-2.388155735388864e-05,-2.4258419216494076e-05,-2.2768972485209815e-05,5.2581450290745124e-05
-2.4633573048049584e-05,-2.8391327759891283e-06,-2.767497608147096e-05,5.1483719289535657e-05
-2.5397379431524314e-05,2.3439020878868178e-05,-2.746599966485519e-05,5.544594387174584e-05
-2.5767165425349958e-05,3.468842987786047e-05,-2.239239984191954e-05,6.0955768276471645e-05
-3.0114353648968972e-05,3.128882235614583e-05,-2.1620619008899666e-05,6.197775655891746e-05
-3.594740337575786e-05,2.9343013011384755e-05,-2.575299731688574e-05,5.837877688463777e-05
-3.787982859648764e-05,3.3273670851485804e-05,-2.675752512004692e-05,5.8684083342086524e-05
-3.7554040318354964e-05,3.1963187211658806e-05,-2.4966271666926332e-05,6.074327029637061e-05
-3.607289181672968e-05,3.2456769986310974e-05,-2.442971344862599e-05,6.0781156207667664e-05
-3.091111284447834e-05,3.384442607057281e-05,-1.968312972167041e-05,6.131506961537525e-05
-2.4365459466935135e-05,2.532521466491744e-05,-7.826593900972512e-06,6.485401536338031e-05
-1.6170968592632562e-05,8.032826372073032e-06,5.837500339112012e-06,7.273760274983943e-05
-7.532483323302586e-06,-1.0925860806310084e-05,1.5252035154844634e-05,7.733559323241934e-05
-6.031803877704078e-06,-2.065560511255171e-05,2.2178124709171243e-05,7.466614624718204e-05
-1.0088625458593015e-05,-1.6573494576732628e-05,3.336839290568605e-05,7.019539043540135e-05
-1.656417953199707e-05,-3.0393005090445513e-06,4.1077051719184965e-05,6.589795520994812e-05
-1.7331878552795388e-05,1.5651752619305626e-05,4.0909995732363313e-05,6.345753354253247e-05
-1.4591028957511298e-05,3.9996550185605884e-05,3.6197136068949476e-05,6.231546285562217e-05
-1.271239852940198e-05,6.525334174511954e-05,3.085716889472678e-05,6.288312579272315e-05
-1.3579281585407443e-05,8.442038233624771e-05,2.668880915734917e-05,6.294339982559904e-05
-1.754156983224675e-05,0.00010093309538206086,2.3216893168864772e-05,6.28898706054315e-05
-1.8033289961749688e-05,0.00011402957170503214,2.0267872969270684e-05,6.558857421623543e-05
-1.5749119484098628e-05,0.00011303687642794102,1.528258144389838e-05,6.9257257564459e-05
-1.395889739796985e-05,8.345714741153643e-05,8.049023563216906e-06,6.966678483877331e-05
-1.56407095346367e-05,3.510286478558555e-05,-7.557312073913636e-07,6.509217928396538e-05
-1.838452590163797e-05,-1.1328306754876394e-06,-8.704391802893952e-06,6.075845885789022e-05
-2.174993096559774e-05,-1.1356901268300135e-05,-1.3693043911189307e-05,6.054098776075989e-05
-2.4520280931028537e-05,-1.008581693895394e-05,-1.6938747648964636e-05,6.304222188191488e-05
-2.5287947210017592e-05,-4.031702701468021e-06,-1.9332646843395196e-05,6.497263530036435e-05
-2.560893881309312e-05,1.4649853255832568e-05,-2.2078298570704646e-05,6.504828343167901e-05
-2.8377877242746763e-05,4.547412754618563e-05,-2.811130070767831e-05,6.244196265470237e-05
-3.24427783198189e-05,6.79137883707881e-05,-3.4065564250340685e-05,6.147082604002208e-05
-3.3927266485989094e-05,7.40335599402897e-05,-3.809064219240099e-05,6.391850183717906e-05
-3.326849764562212e-05,9.180967754218727e-05,-4.928790440317243e-05,6.435401883209124e-05
-3.674176332424395e-05,0.00012002458970528096,-6.657169433310628e-05,6.446017505368218e-05
-4.1146351577481255e-05,0.00012249441351741552,-6.388366455212235e-05,6.350898183882236e-05
-3.853680755128153e-05,9.706154378363863e-05,-3.762168125831522e-05,6.306480645434931e-05
-3.466503039817326e-05,8.129176421789452e-05,-1.995744605665095e-05,6.791144551243633e-05
-3.089174424530938e-05,7.867734530009329e-05,-2.0347946701804176e-05,6.719567318214104e-05
-2.4781191314104944e-05,5.855381823494099e-05,-2.2369369617081247e-05,6.369720358634368e-05
-2.5638022634666413e-05,-1.2990780305699445e-05,-2.1670712158083916e-05,6.69932778691873e-05
-2.8524860681500286e-05,-0.00011379263742128387,-2.6159883418586105e-05,7.241027196869254e-05
-3.0507853807648644e-05,-0.00017152857617475092,-5.1466056902427226e-05,7.514877506764606e-05
-3.356103479745798e-05,-0.00016294886881951243,-8.6319210822694e-05,7.293404632946476e-05
-3.068796286243014e-05,-9.770022734301165e-05,-9.834493539528921e-05,6.930836389074102e-05
-1.8436667232890613e-05,-1.5015511053206865e-05,-8.04648661869578e-05,6.948534428374842e-05
-7.897848263382912e-06,4.4324140617391095e-05,-4.2998686694772914e-05,7.039795309538022e-05
-1.328949656453915e-05,6.57687705825083e-05,-5.588012754742522e-06,6.974315328989178e-05
-2.711041088332422e-05,5.5092732509365305e-05,2.0003146346425638e-05,6.66736887069419e-05
-3.846095205517486e-05,3.17334161081817e-05,3.411436773603782e-05,6.010338256601244e-05
-4.316133345128037e-05,8.967500434664544e-06,4.212712883600034e-05,5.339359267964028e-05
-4.4435244490159675e-05,-1.126841289078584e-05,4.5273136493051425e-05,4.912017175229266e-05
-4.3500607716850936e-05,-2.684797436813824e-05,4.54669825558085e-05,5.123677328811027e-05
-4.225170778227039e-05,-2.915648656198755e-05,4.74335320177488e-05,5.772863369202241e-05
-4.151790199102834e-05,-2.1279623979353346e-05,4.996853749617003e-05,6.260904774535447e-05
-4.2308402044000104e-05,-9.878903256321792e-06,4.10549073421862e-05,6.373227370204404e-05
-4.3907391955144703e-05,6.759191819583066e-06,1.3902690625400282e-05,6.192876753630117e-05
-4.4388099922798574e-05,2.6126775992452167e-05,-2.0402820155140944e-05,5.8197318139718845e-05
-4.2184325138805434e-05,3.655299587990157e-05,-4.59608381788712e-05,5.669542952091433e-05
-3.91260145988781e-05,3.657411798485555e-05,-5.193064862396568e-05,6.001302972435951e-05
-3.591520362533629e-05,2.9294313208083622e-05,-4.400002944748849e-05,6.212334119481966e-05
-3.159722837153822e-05,2.453864181006793e-05,-3.4118416806450114e-05,5.850719753652811e-05
-2.9963588531245477e-05,2.7913791200262494e-05,-2.3748823878122494e-05,5.364538446883671e-05
-3.238512363168411e-05,3.881901648128405e-05,-1.0264871889376082e-05,5.3152161854086444e-05
-3.22287596645765e-05,4.312496821512468e-05,-3.069963554480637e-07,5.743036308558658e-05
-2.439173658785876e-05,3.095338979619555e-05,4.268931661499664e-06,6.111619586590677e-05
-1.5583929780405015e-05,2.5730403649504296e-05,8.39295444166055e-06,6.043010944267735e-05
-1.2528182196547277e-05,3.3912892831722274e-05,1.2624884220713284e-05,5.775233148597181e-05
-2.010542812058702e-05,3.620362622314133e-05,1.5899171557975933e-05,5.622682874673046e-05
-3.066753561142832e-05,3.0309758585644886e-05,1.2862024050264154e-05,5.588591011473909e-05
-3.590092819649726e-05,2.289465192006901e-05,4.357922534836689e-06,5.417356078396551e-05
-3.447871495154686e-05,1.5870646166149527e-05,-2.66989309238852e-06,4.946670378558338e-05
-2.9898315915488638e-05,1.3684101759281475e-05,-5.90316221860121e-06,4.429023829288781e-05
-2.434394264128059e-05,1.461257033952279e-05,-9.076227797777392e-06,4.267015174264088e-05
-2.006206523219589e-05,1.2770435205311514e-05,-1.4583111806132365e-05,4.2434279748704284e-05
-1.8317938156542368e-05,1.338123001914937e-05,-1.938689274538774e-05,4.247561082593165e-05
-1.8250006178277545e-05,2.614884579088539e-05,-1.8788685338222422e-05,4.36641821579542e-05
-1.8220063793705776e-05,5.010547465644777e-05,-1.0947658665827475e-05,4.608261224348098e-05
-1.6486752429045737e-05,6.699160439893603e-05,-2.8076810849597678e-06,4.7763827751623467e-05
-1.572729706822429e-05,6.0651436797343194e-05,-1.2039158718835097e-06,4.7436569730052724e-05
-1.989583506656345e-05,2.910334660555236e-05,-2.7736682568502147e-06,4.658840043703094e-05
-2.696538285817951e-05,-8.548959158360958e-06,-2.3129316559789004e-06,4.605962385539897e-05
-3.144882794003934e-05,-2.234949715784751e-05,-3.0050923669477925e-06,4.3107702367706224e-05
-3.1205890991259366e-05,-3.439704642005381e-06,-7.1428021328756586e-06,3.991619450971484e-05
-2.9221497243270278e-05,3.0163248084136285e-05,-1.2919657820020802e-05,4.162493132753298e-05
-2.7174070055480115e-05,5.637353751808405e-05,-1.7784894225769676e-05,4.7064098907867447e-05
-2.4380760805797763e-05,6.273993494687602e-05,-1.9585741029004566e-05,5.108927871333435e-05
-2.204170959885232e-05,5.738768231822178e-05,-1.9902670828741975e-05,4.819331661565229e-05
-1.9994740796391852e-05,5.097440953250043e-05,-2.170896368625108e-05,4.46469166490715e-05
-1.9947126929764636e-05,4.23442579631228e-05,-2.254242281196639e-05,4.5267282985150814e-05
-1.9695986338774674e-05,2.8421067327144556e-05,-2.2446050934377126e-05,4.508152778726071e-05
-2.2653945052297786e-05,1.0816916983458214e-05,-2.3915674319141544e-05,4.378995799925178e-05
-2.5343757442897186e-05,1.3855159522790927e-05,-2.618283724586945e-05,4.1174746002070606e-05
-2.4199374820454977e-05,4.1967694414779544e-05,-2.918980135291349e-05,4.138796066399664e-05
-2.3229913495015353e-05,6.564635987160727e-05,-3.204311724402942e-05,4.425844963407144e-05
-2.7172665795660578e-05,5.323981531546451e-05,-3.238010685890913e-05,4.669182453653775e-05
-3.261944584664889e-05,1.493297349952627e-05,-2.969777415273711e-05,4.816201180801727e-05
-3.430619472055696e-05,-1.2463608982216101e-05,-2.602724271127954e-05,4.908132177661173e-05
-3.0193910788511857e-05,-6.075391411286546e-06,-2.3567725293105468e-05,4.826517397304997e-05
-2.2986156182014383e-05,2.374036739638541e-05,-2.1840131012140773e-05,4.343298860476352e-05
-1.9846194845740683e-05,4.614089266397059e-05,-2.0389386918395758e-05,4.2646406654966995e-05
-1.9706960301846266e-05,3.6823752452619374e-05,-1.7598109479877166e-05,4.5305798266781494e-05
-2.0903884433209896e-05,3.7838253774680197e-06,-1.3300422324391548e-05,4.9639595090411603e-05
-2.0172426957287826e-05,-1.2522933502623346e-05,-9.92982677416876e-06,5.349802813725546e-05
-1.8382630514679477e-05,8.535758752259426e-06,-8.507056008966174e-06,5.399049405241385e-05
-1.7347816537949257e-05,4.566598727251403e-05,-7.850979272916447e-06,5.339695781003684e-05
-1.8493152310838923e-05,6.769930041627958e-05,-4.319047548051458e-06,5.6612403568578884e-05
-1.8678860215004534e-05,6.751571345375851e-05,3.3858398751362984e-07,5.902345583308488e-05
-1.6458843674627133e-05,5.5725315178278834e-05,1.80476729383372e-06,5.732958379667252e-05
-1.709686330286786e-05,3.494485281407833e-05,-2.570511128396902e-07,5.5282718676608056e-05
-2.314646371814888e-05,1.0125316975972964e-06,-2.994529722855077e-06,5.4308817198034376e-05
-3.139230830129236e-05,-3.6034718505106866e-05,-5.9846847761946265e-06,5.490550756803714e-05
-3.8076526834629476e-05,-5.960083217360079e-05,-8.107860594464e-06,5.656359644490294e-05
-3.767749512917362e-05,-5.509787661139853e-05,-8.668232112540863e-06,5.7244007621193305e-05
-3.467250644462183e-05,-2.4654971639392897e-05,-8.571097168896813e-06,5.471435724757612e-05
-3.322200427646749e-05,8.876202628016472e-06,-9.685548320703674e-06,5.362161755328998e-05
-2.9188917324063368e-05,3.012992237927392e-05,-1.1960608389927074e-05,5.5969812819967046e-05
-2.544105882407166e-05,4.424578582984395e-05,-9.033073183672968e-06,6.336681690299883e-05
-2.4122757167788222e-05,5.696014704881236e-05,-5.362075171433389e-06,7.028556865407154e-05
-2.451268483127933e-05,6.61258673062548e-05,-4.685937255999306e-06,6.839509296696633e-05
-2.5753512090886943e-05,6.17032201262191e-05,-4.17301589550334e-06,6.362386193359271e-05
-2.6117611923837103e-05,4.5011849579168484e-05,-4.026908300147625e-06,6.290832243394107e-05
-2.3803439034963958e-05,2.633546137076337e-05,-1.8820107925421325e-06,6.225008837645873e-05
-2.2884178179083392e-05,1.1084857760579325e-05,-2.4209987259382615e-06,6.075735291233286e-05
-2.3284303097170778e-05,-2.90531193058996e-06,-6.574983672180679e-06,5.848683213116601e-05
-2.370471520407591e-05,-1.6562200471526012e-05,-8.54070640343707e-06,5.9925452660536394e-05
-2.3468819563277066e-05,-2.7125233827973716e-05,-6.749154181306949e-06,6.680087972199544e-05
-2.3844066163292155e-05,-2.9474193070200272e-05,-4.974189778295113e-06,7.56880035623908e-05
-2.4918255803640932e-05,-2.2187114154803567e-05,-4.353400981926825e-06,8.018874359549955e-05
-2.4963066607597284e-05,-3.701928790178499e-06,-4.359708782430971e-06,7.661926065338776e-05
-2.4889643100323156e-05,3.0427094316110015e-05,-4.827461907552788e-06,7.067661499604583e-05
-2.4798624508548528e-05,7.312267553061247e-05,-6.58262297292822e-06,6.791896157665178e-05
-2.4752447643550113e-05,0.00010022513015428558,-1.0425983418826945e-05,6.740518438164145e-05
-2.541666617617011e-05,9.77064119069837e-05,-1.4674492376798298e-05,6.475750706158578e-05
-2.8180842491565272e-05,6.543587369378656e-05,-1.7447075151721947e-05,6.201338692335412e-05
-3.074595224461518e-05,1.1054426067858003e-05,-2.585648871900048e-05,6.231352017493919e-05
-3.089614983764477e-05,-2.5697747332742438e-05,-5.2726241847267374e-05,6.484030018327758e-05
-2.8656129870796576e-05,1.5670216271246318e-06,-8.581060683354735e-05,6.35828182566911e-05
-2.71827320830198e-05,6.529050006065518e-05,-9.618897456675768e-05,5.56214181415271e-05
-2.7251788196736015e-05,8.883473492460325e-05,-7.434013969032094e-05,4.781422467203811e-05
-2.7702504667104222e-05,5.1241633627796546e-05,-4.064023960381746e-05,4.697279291576706e-05
-2.9379787520156242e-05,5.081382369098719e-06,-1.601071380719077e-05,4.847631134907715e-05
-3.259818549850024e-05,5.965081300018937e-07,2.120417548212572e-06,5.239858364802785e-05
-3.689863297040574e-05,1.571044049342163e-05,1.8454289602232166e-05,5.670552491210401e-05
-3.699795342981815e-05,2.3149943444877863e-05,2.9810737032676116e-05,5.963261719443835e-05
-3.127147283521481e-05,2.650316855579149e-05,3.6154007830191404e-05,6.351411138894036e-05
-2.456990841892548e-05,2.8944126825081185e-05,4.0464696212438866e-05,6.335124635370448e-05
-2.209001650044229e-05,2.895662692026235e-05,4.572709076455794e-05,6.0653386753983796e-05
-2.406605017313268e-05,2.6424817406223156e-05,4.8336067266063765e-05,6.01956489845179e-05
-2.6179026463069022e-05,2.2395532141672447e-05,4.398540113470517e-05,6.126606604084373e-05
-2.7213704015593976e-05,2.7728079658118077e-05,3.478694270597771e-05,5.961082933936268e-05
-2.540656532801222e-05,4.38038186985068e-05,2.824364128173329e-05,5.6898046750575304e-05
-2.1999159798724577e-05,6.34467724012211e-05,2.3820775822969154e-05,5.746364695369266e-05
-1.9423518097028136e-05,7.656415982637554e-05,1.9913893993361853e-05,6.119730096543208e-05
-1.9718399926205166e-05,7.333878602366894e-05,1.6653497368679382e-05,6.28254420007579e-05
-2.1534826373681426e-05,3.591294807847589e-05,1.5021523722680286e-05,6.048358409316279e-05
-2.471354673616588e-05,-2.989000677189324e-05,1.7416494301869534e-05,5.717655585613102e-05
-2.8567941626533866e-05,-7.602123514516279e-05,1.915905886562541e-05,5.6692108046263456e-05
-3.084941636188887e-05,-7.742058369331062e-05,1.5618823454133235e-05,5.911821062909439e-05
-3.2172538340091705e-05,-5.1552131481003016e-05,9.045623301062733e-06,5.9795707784360275e-05
-3.275263952673413e-05,-2.1313346223905683e-05,2.347393547097454e-06,5.829898873344064e-05
-3.1762967410031706e-05,7.1891035986482166e-06,-5.60448415853898e-06,5.6671869970159605e-05
-2.681680598470848e-05,3.080030728597194e-05,-1.3800925444229506e-05,5.864667036803439e-05
-2.1687692424166016e-05,4.993679249309935e-05,-2.084798506984953e-05,6.135462172096595e-05
-2.0236107957316563e-05,6.016066618030891e-05,-2.359346217417624e-05,5.993502418277785e-05
-1.9107817934127524e-05,5.979981506243348e-05,-1.7621181541471742e-05,5.422285903478041e-05
-1.527692256786395e-05,5.023930862080306e-05,-5.529616828425787e-06,5.2126561058685184e-05
-1.2747869732265826e-05,4.236106178723276e-05,-5.107216338728904e-07,5.9221405535936356e-05
-1.2553958185890224e-05,3.872984234476462e-05,-7.2388857006444596e-06,6.700052472297102e-05
-1.379648983856896e-05,2.497509922250174e-05,-1.633151259738952e-05,6.654752360191196e-05
-1.6541773220524192e-05,3.830847163044382e-06,-2.185145604016725e-05,6.110015965532511e-05
-2.015077006944921e-05,1.0884522225751425e-06,-2.844616574293468e-05,5.7599776482675225e-05
-2.296708589710761e-05,2.0832381778745912e-05,-3.261414894950576e-05,6.055767880752683e-05
-2.6688812795327976e-05,3.855391332763247e-05,-3.213641684851609e-05,6.415020470740274e-05
-3.072317849728279e-05,4.877041283180006e-05,-3.308648956590332e-05,6.441374716814607e-05
-3.1728381145512685e-05,5.169970609131269e-05,-3.37458259309642e-05,6.551239494001493e-05
-3.23942513205111e-05,4.74719017802272e-05,-3.2296589779434726e-05,6.53328315820545e-05
-3.348021346027963e-05,4.604924106388353e-05,-2.556131948949769e-05,6.644849054282531e-05
-3.524184285197407e-05,4.5596592826768756e-05,-2.221287286374718e-05,6.767548620700836e-05
-3.961811671615578e-05,4.08046216762159e-05,-2.2614722183789127e-05,6.576123996637762e-05
-4.52313142886851e-05,2.9639633794431575e-05,-1.9379025616217405e-05,6.0672136896755546e-05
-4.8069763579405844e-05,1.3080287317279726e-05,-1.5354817151091993e-05,5.5290951422648504e-05
-4.5969049097038805e-05,-1.9887690996256424e-06,-1.3586701243184507e-05,5.211533061810769e-05
-3.8120346289360896e-05,-6.75298178975936e-06,-1.524019808130106e-05,5.39648171979934e-05
-2.424295962555334e-05,-3.316991069368669e-06,-1.5206408534140792e-05,5.953105937805958e-05
-9.166700692730956e-06,-3.8347428699125885e-07,-1.5976294889696874e-05,6.255335756577551e-05
-3.961713446187787e-06,-2.708432930376148e-06,-1.823495767894201e-05,6.153812137199566e-05
-9.721825335873291e-06,-9.761840374267194e-06,-2.07662505999906e-05,6.307991134235635e-05
-1.771267307049129e-05,-1.670983874646481e-05,-2.3027314455248415e-05,6.692732858937234e-05
-2.1423235011752695e-05,-1.9419228920014575e-05,-2.4775021302048117e-05,6.811936327721924e-05
-2.1083505998831242e-05,-1.8682729205465876e-05,-2.5486820959486067e-05,6.784250581404194e-05
-1.8218766854261048e-05,-1.7149093764601275e-05,-2.4702909286133945e-05,6.684981781290844e-05
-1.711460754449945e-05,-1.3618696357298177e-05,-2.070111622742843e-05,6.664756801910698e-05
-1.8584789359010756e-05,-3.275383505751961e-06,-1.3959240277472418e-05,6.53007737128064e-05
-2.03510880965041e-05,1.5174700820352882e-05,-8.92661864781985e-06,6.027860217727721e-05
-2.1579939129878767e-05,2.7937619961448945e-05,-6.060585747036384e-06,5.511123890755698e-05
-1.8419048501527868e-05,3.1994837627280504e-05,-2.25277813115099e-06,5.1528026233427227e-05
-1.7253039914066903e-05,3.6164427001494914e-05,1.0050009677797789e-06,4.809923120774329e-05
-2.2511439965455793e-05,3.6096815165365115e-05,2.1509652015083702e-06,4.7924746468197554e-05
-2.426750688755419e-05,2.6853322196984664e-05,3.077098426729208e-06,5.028486702940427e-05
-1.9727891412912868e-05,2.1288960851961747e-05,-1.042108920046303e-06,5.1998515118611977e-05
-1.8967140931636095e-05,2.696084266062826e-05,-7.824880412954371e-06,5.222287290962413e-05
-2.075287193292752e-05,3.8109465094748884e-05,-1.0810873391164932e-05,5.1227951189503074e-05
-2.258525819343049e-05,6.376754026859999e-05,-1.240988785866648e-05,5.048822276876308e-05
-2.2397265638574027e-05,8.853164035826921e-05,-1.553489528305363e-05,4.9959035095525905e-05
-2.0558481992338784e-05,9.131125261774287e-05,-1.9888697352143936e-05,4.530891965259798e-05
-2.123423109878786e-05,8.625352347735316e-05,-2.3690929083386436e-05,4.27431587013416e-05
-2.1820549591211602e-05,8.446997526334599e-05,-2.441338074277155e-05,4.638587051886134e-05
-2.182406205974985e-05,9.43715640460141e-05,-2.3493274056818336e-05,5.110640631755814e-05
-2.249427961942274e-05,0.00010307980846846476,-1.9158029317623004e-05,5.288649845169857e-05
-2.350966678932309e-05,9.43958293646574e-05,-1.0199702956015244e-05,5.2065741328988224e-05
-2.440725438646041e-05,6.903497705934569e-05,-1.280335368392116e-06,5.1343431550776586e-05
-2.5190682208631188e-05,3.3965894544962794e-05,-3.2037482924351934e-06,5.180192965781316e-05
-2.6696639906731434e-05,-5.034543391957413e-06,-1.5600036931573413e-05,5.194214463699609e-05
-3.028189530596137e-05,-3.607960024964996e-05,-2.6014087779913098e-05,5.037627124693245e-05
-3.231101800338365e-05,-4.6991524868644774e-05,-2.690627115953248e-05,4.7752433601999655e-05
-3.214701791875996e-05,-4.349175651441328e-05,-2.3371954739559442e-05,4.771317617269233e-05
-3.2981210097204894e-05,-3.519997335388325e-05,-2.0825595129281282e-05,5.1494465878931805e-05
-3.504378400975838e-05,-2.4464034140692092e-05,-1.6609232261544093e-05,5.446952491183765e-05
-3.6542209272738546e-05,-1.2442316801752895e-05,-1.0494496564206202e-05,5.6076965847751126e-05
-3.5116070648655295e-05,9.021456435220898e-07,-4.681412974605337e-06,5.8732253819471225e-05
-3.106527219642885e-05,2.4909109924919903e-05,-1.0297578683093889e-06,6.0263206250965595e-05
-2.8126822144258767e-05,6.452026718761772e-05,2.2305853519810626e-07,5.5960408644750714e-05
-2.6295847419532947e-05,0.00010842289339052513,1.8964552737088525e-06,5.11318830831442e-05
-2.5774812456802465e-05,0.00012370817421469837,4.304045887693064e-06,5.2807223255513236e-05
-2.2468098904937506e-05,8.110132330330089e-05,4.697385975305224e-06,5.414566840045154e-05
-1.9611652533058077e-05,1.0392019248683937e-05,2.824133389367489e-07,4.8095596866915e-05
-2.4560251404182054e-05,-2.6676001652958803e-05,-5.27354359292076e-06,4.425503357197158e-05
-3.177759572281502e-05,-1.7921374819707125e-05,-6.7281916926731355e-06,4.450213600648567e-05
-3.312559420010075e-05,8.520675692125224e-06,-2.034071030720952e-06,4.4936867197975516e-05
-3.0554598197340965e-05,2.5389124857611023e-05,8.402013008890208e-06,4.685157546191476e-05
-3.056672721868381e-05,2.7367754228180274e-05,1.3780972949462011e-05,4.897865073871799e-05
-3.0471448553726077e-05,1.8350254322285764e-05,1.0319486136722844e-05,4.993781112716533e-05
-2.9792747227475047e-05,5.768051778431982e-07,2.696721367101418e-06,5.2257939387345687e-05
-2.911658157245256e-05,-1.4675994862045627e-05,-2.904555230998085e-06,5.478612729348242e-05
-2.6735422579804435e-05,-1.049227921612328e-05,-5.703626356989844e-06,5.392828825279139e-05
-1.925468495755922e-05,9.61801652010763e-06,-6.658771326328861e-06,5.19513851031661e-05
-1.232912836712785e-05,2.5849298253888264e-05,-1.1268216439930256e-05,5.301696000969969e-05
-8.60519958223449e-06,2.4066428522928618e-05,-1.8274700778420083e-05,5.5858410632936284e-05
-9.189208867610432e-06,1.6648697055643424e-05,-2.1487312551471405e-05,5.7858011132339016e-05
-1.7403921447112225e-05,1.1059705684601795e-05,-2.22465860133525e-05,5.822857565362938e-05
-2.7601661713561043e-05,3.5500050898917834e-07,-2.6139283363590948e-05,5.743321162299253e-05
-3.318027302157134e-05,-5.11772304889746e-06,-3.088407538598403e-05,5.512576171895489e-05
-3.4649696317501366e-05,1.137646449933527e-05,-3.0612929549533874e-05,5.459316525957547e-05
-3.6467157769948244e-05,4.194918437860906e-05,-2.9130031180102378e-05,5.8891182561637834e-05
-3.579750409699045e-05,6.015543840476312e-05,-2.9259317670948803e-05,6.367476453306153e-05
-3.1830819352762774e-05,5.4521646234206855e-05,-2.8088315957575105e-05,6.669772847089916e-05
-2.77056733466452e-05,3.351788473082706e-05,-2.3042035536491312e-05,6.785971345379949e-05
-2.7115962438983843e-05,2.3870172299211845e-05,-1.7154095985461026e-05,6.649206625297666e-05
-2.7923440939048305e-05,3.387841934454627e-05,-1.3927151485404465e-05,6.283271795837209e-05
-2.7711459551937878e-05,4.2841835238505155e-05,-1.271928795176791e-05,6.0956517700105906e-05
-2.6426290787640028e-05,4.494416862144135e-05,-9.354841495223809e-06,6.30849099252373e-05
-2.6272735340171494e-05,3.875149923260324e-05,-3.937080691684969e-06,6.548133387695998e-05
-2.6998633984476328e-05,2.8259233658900484e-05,-1.4808305195401772e-06,6.433693488361314e-05
-2.646605935296975e-05,2.97200840577716e-05,-5.094583684694953e-06,6.15904646110721e-05
-2.5559627829352394e-05,4.323334724176675e-05,-8.232549589592963e-06,5.911321204621345e-05
-2.3299784515984356e-05,5.3704094170825556e-05,-7.588167591165984e-06,6.065170600777492e-05
-2.2995011022430845e-05,4.197199814370833e-05,-4.974343937647063e-06,6.357207166729495e-05
-2.325390414625872e-05,1.2487671483540908e-05,-5.2250838962208945e-06,6.141029734862968e-05
-2.2227250155992806e-05,-1.4833524801360909e-05,-7.528403330070432e-06,5.560444697039202e-05
-2.182805292250123e-05,-2.1226538592600264e-05,-8.831342711346224e-06,5.119177876622416e-05
-2.1998426745994948e-05,-1.4018167348694988e-05,-8.497448106936645e-06,5.058517854195088e-05
-2.200412200181745e-05,-1.3131124433130026e-05,-6.019745342200622e-06,5.341646101442166e-05
-1.957081440195907e-05,-2.8721236958517693e-05,-5.1761589929810725e-06,5.64816000405699e-05
-1.791152317309752e-05,-3.1664836569689214e-05,-1.0395435310783796e-05,5.5459284340031445e-05
-2.0713458070531487e-05,2.0320042892763013e-07,-1.8983782865689136e-05,5.145160685060546e-05
-2.4981554815894924e-05,4.062460357090458e-05,-2.390853114775382e-05,4.9994599976344034e-05
-2.7416370357968844e-05,5.5392287322320044e-05,-2.1805422875331715e-05,5.36084444320295e-05
-2.694098475330975e-05,4.82501600345131e-05,-2.1640646082232706e-05,5.752567813033238e-05
-2.3981388949323446e-05,4.177713344688527e-05,-3.6254226870369166e-05,5.931976193096489e-05
-2.1267764168442227e-05,3.711368117365055e-05,-5.407587013905868e-05,6.364112050505355e-05
-2.138423951691948e-05,3.161545828334056e-05,-5.1205082854721695e-05,6.970859976718202e-05
-2.264465183543507e-05,2.9143542633391917e-05,-3.056506466236897e-05,7.193507190095261e-05
-2.3363312720903195e-05,2.9871900551370345e-05,-9.686256817076355e-06,7.13225599611178e-05
-2.454535751894582e-05,2.195309934904799e-05,8.460699064016808e-06,7.182304398156703e-05
-2.5340626962133683e-05,7.909698069852311e-06,2.2923893993720412e-05,7.402356277452782e-05
-2.622553256514948e-05,-2.6752372832561377e-06,2.7604090064414777e-05,7.433119026245549e-05
-2.4809171009110287e-05,-6.882385861217699e-08,2.269065589644015e-05,7.394178828690201e-05
-1.9881032130797394e-05,9.091487299883738e-06,1.5143982636800501e-05,7.252679642988369e-05
-2.0268376829335466e-05,7.70942642702721e-06,4.647386504075257e-06,6.958284939173609e-05
-2.1550149540416896e-05,1.9946510292356834e-06,-6.52372636977816e-06,6.774610665161163e-05
-2.0537399905151688e-05,-2.0556292383844266e-06,-1.4165610082272906e-05,6.466617924161255e-05
-2.2592830646317452e-05,1.5595377362842555e-06,-2.2002806872478686e-05,6.363972352119163e-05
-2.5507750251563266e-05,1.7760938135324977e-05,-4.594581696437672e-05,6.761313125025481e-05
-2.6120158509002067e-05,3.3469299523858353e-05,-7.358677248703316e-05,7.260647544171661e-05
-2.274453618156258e-05,5.323258665157482e-05,-7.268162880791351e-05,7.265086605912074e-05
-2.0129255062784068e-05,8.003280527191237e-05,-4.642531348508783e-05,6.925401248736307e-05
-2.0012983441120014e-05,0.00010502870281925425,-1.6092410078272223e-05,6.573295831913128e-05
-2.4230163035099395e-05,0.00011211128003196791,7.105936219886644e-06,6.22115985606797e-05
-2.7862737624673173e-05,0.00010192738409386948,2.842487629095558e-05,6.132917769718915e-05
-2.8329661290626973e-05,7.9748009738978e-05,4.6343895519385114e-05,6.20806313236244e-05
-2.773567393887788e-05,5.770126517745666e-05,5.448237789096311e-05,6.441390723921359e-05
-2.8073945941287093e-05,4.2756884795380756e-05,5.292190326144919e-05,6.894183752592653e-05
-3.044293225684669e-05,2.976717587444e-05,4.687232285505161e-05,7.165614806581289e-05
-3.2442509109387174e-05,9.615482667868491e-06,4.160480239079334e-05,6.991929694777355e-05
-3.139548789476976e-05,-2.3042817701934837e-05,3.584255318855867e-05,7.067411934258416e-05
-2.94173169095302e-05,-5.27809897903353e-05,2.71840144705493e-05,7.48673191992566e-05
-3.123604619759135e-05,-5.929827966610901e-05,1.8003751392825507e-05,7.536364864790812e-05
-3.2970714528346434e-05,-3.5461758670862764e-05,1.4543836186931003e-05,6.991996633587405e-05
-3.195223689544946e-05,3.168300963807269e-06,1.4980099876993336e-05,6.368020694935694e-05
-2.9272379833855666e-05,3.932003892259672e-05,1.1562924555619247e-05,6.183356163091958e-05
-2.8847638532170095e-05,6.023388050380163e-05,4.461659500520909e-06,6.539687456097454e-05
-2.906112240452785e-05,6.394374213414267e-05,9.67564574239077e-07,7.02619508956559e-05
-2.8084601581213064e-05,6.183488585520536e-05,2.0879269868601114e-06,6.816103268647566e-05
-2.896078149206005e-05,7.566996646346524e-05,-5.011211214878131e-07,6.027260678820312e-05
-3.347410893184133e-05,8.6003310570959e-05,-3.3042363156710053e-06,5.431480531115085e-05
-3.771552655962296e-05,5.8860408898908645e-05,2.0917236724926624e-06,5.095253436593339e-05
-4.116425407119095e-05,2.2996462575974874e-05,1.0387602742412128e-05,4.742226519738324e-05
-4.400802936288528e-05,5.220709226705367e-06,1.2754368981404696e-05,4.518115383689292e-05
-4.258938497514464e-05,-6.646130259468919e-06,1.1009833542630076e-06,5.0319584261160344e-05
-3.7285670259734616e-05,-1.0825468962138984e-05,-2.2399359295377508e-05,5.809225331177004e-05
-3.2139414543053135e-05,-6.345325800793944e-06,-4.480552888708189e-05,5.946185046923347e-05
-3.029771505680401e-05,-5.6080661892110584e-08,-5.5199470807565376e-05,5.692238119081594e-05
-3.0074457754381e-05,2.284445145050995e-06,-5.3047584515297785e-05,5.191364107304253e-05
-2.8182750611449592e-05,9.719401532493066e-06,-4.569894736050628e-05,4.947138950228691e-05
-2.5031427867361344e-05,2.3193004381028004e-05,-4.309988798922859e-05,5.250564208836295e-05
-2.143573874491267e-05,4.849771721637808e-05,-4.555087070912123e-05,5.59002291993238e-05
-1.926620643644128e-05,8.417592471232638e-05,-4.820218964596279e-05,5.551361391553655e-05
-1.9611627067206427e-05,0.00011437382636358961,-4.839586472371593e-05,5.3891268180450425e-05
-2.1955778720439412e-05,0.00012310515739955008,-4.5399727241601795e-05,5.606732884189114e-05
-2.493445936124772e-05,0.00010937071783700958,-4.1323703044326976e-05,5.950555714662187e-05
-2.7755175324273296e-05,8.22015936137177e-05,-3.849030690616928e-05,5.941792915109545e-05
-3.05317880702205e-05,4.217921377858147e-05,-3.547044252627529e-05,5.9194386267336085e-05
-3.206913606845774e-05,-8.844958756526466e-06,-2.785882679745555e-05,5.942783536738716e-05
-3.333150380058214e-05,-4.7749457735335454e-05,-1.643513132876251e-05,5.68430004932452e-05
-3.5433149605523795e-05,-4.2899977415800095e-05,-1.0122661478817463e-05,5.346625403035432e-05
-3.5745986679103225e-05,-2.034747740253806e-05,-1.5123014236451127e-05,5.238561425358057e-05
-3.15470970235765e-05,-2.164116631320212e-05,-2.157301605620887e-05,4.977373464498669e-05
-2.5350898795295507e-05,-3.545247091096826e-05,-2.129266067640856e-05,4.396342046675272e-05
-2.0600420612026937e-05,-2.212617255281657e-05,-1.6827216313686222e-05,4.089027061127126e-05
-1.963716931641102e-05,2.1605250367429107e-05,-1.2709059774351772e-05,4.401037949719466e-05
-1.9320284991408698e-05,6.321667024167255e-05,-9.812666576181073e-06,4.9991620471701026e-05
-1.929241989273578e-05,7.860780169721693e-05,-8.73461158334976e-06,5.722034620703198e-05
-2.1914243916398846e-05,7.195696525741369e-05,-8.434477422269993e-06,6.253179162740707e-05
-2.457829577906523e-05,6.179172487463802e-05,-1.0016503438237123e-05,6.209448474692181e-05
-2.257007326988969e-05,6.543838389916345e-05,-1.544801125419326e-05,6.211501749930903e-05
-1.732846794766374e-05,7.948945130920038e-05,-2.145012877008412e-05,5.904227145947516e-05
-1.6287558537442237e-05,7.5927258876618e-05,-2.2221269318833947e-05,4.9864254833664745e-05
-2.103749466186855e-05,2.487551319063641e-05,-1.6901032722671516e-05,4.209493999951519e-05
-2.5177383577101864e-05,-3.862610901705921e-05,-1.1913520211237483e-05,4.371571048977785e-05
-2.448520353937056e-05,-6.950167153263465e-05,-8.58289422467351e-06,4.94814885314554e-05
-2.399417462584097e-05,-6.062589818611741e-05,-4.204291144560557e-06,5.3415125876199454e-05
-2.7099978979094885e-05,-3.0679202609462664e-05,-2.063604370050598e-06,5.7142533478327096e-05
-2.9317754524527118e-05,-5.900120947366361e-10,-1.7225324882019777e-06,6.166143430164084e-05
-2.707944622670766e-05,3.2263280445476994e-05,-2.458510834912886e-06,6.423430750146508e-05
-2.614028926473111e-05,6.474975816672668e-05,-2.9901714242441813e-06,6.305986607912928e-05
-2.7202187993680127e-05,9.058083378477022e-05,1.7916322576638777e-06,6.158900941954926e-05
-2.5102677682298236e-05,0.00010152586037293077,8.472647095913999e-06,5.9869973483728245e-05
-2.136209513992071e-05,9.398331167176366e-05,1.1252345757384319e-05,5.8194240409648046e-05
-2.082783066725824e-05,7.624671707162634e-05,9.030673936649691e-06,5.5752745538484305e-05
-2.3708127628196962e-05,6.305483111646026e-05,5.962401701253839e-06,5.342553777154535e-05
-2.5485142032266594e-05,4.8215166316367686e-05,4.680970960180275e-06,5.321078424458392e-05
-2.428657899145037e-05,1.763745240168646e-05,4.030851414427161e-06,5.298253381624818e-05
-2.1477395421243273e-05,-3.217362245777622e-05,1.6633991890557809e-06,4.9044589104596525e-05
-1.9061868442804553e-05,-7.68517202232033e-05,-3.71627692175025e-07,4.663115396397188e-05
-1.936051376105752e-05,-8.571045327698812e-05,-1.0358854751757463e-06,5.08960583829321e-05
-2.1393960196292028e-05,-5.893770867260173e-05,-2.977160420414293e-06,5.6563716498203576e-05
-1.8758399164653383e-05,-2.1060197468614206e-05,-4.08315008826321e-06,5.7443561672698706e-05
-1.1826614354504272e-05,1.0222597666142974e-05,-1.3862597825209377e-06,5.9355079429224133e-05
-8.568431439925916e-06,3.3328356948914006e-05,-9.932450666383374e-07,6.446528277592734e-05
-1.3453391147777438e-05,3.9710328564979136e-05,-6.234141892491607e-06,6.621274951612577e-05
-1.6034218788263388e-05,2.9998713216627948e-05,-9.334010428574402e-06,6.551497062901035e-05
-1.4967552488087676e-05,2.0828920241910964e-05,-5.37068353878567e-06,6.357533857226372e-05
-1.6801865058369003e-05,1.5953020920278504e-05,3.2670764085196424e-06,6.263952673180029e-05
-2.2554146198672242e-05,2.1556981664616615e-05,6.478932391473791e-06,6.53675087960437e-05
-2.8813587050535716e-05,3.5537323128664866e-05,-1.6218327800743282e-06,6.65288680465892e-05
-3.136596569675021e-05,4.55237204732839e-05,-9.967098776542116e-06,6.478709110524505e-05
-3.0088391213212162e-05,4.049160270369612e-05,-1.0858602763619274e-05,6.109601235948503e-05
-2.5756371542229317e-05,1.0133686373592354e-05,-1.0367079994466621e-05,5.6978991779033095e-05
-2.5186591301462613e-05,-3.354006912559271e-05,-1.082419930753531e-05,5.670738028129563e-05
-2.872836557799019e-05,-5.4692958656232804e-05,-1.0889394616242498e-05,5.779969069408253e-05
-3.3074764360208064e-05,-3.923409531125799e-05,-1.2273798347450793e-05,5.772568329120986e-05
-3.1454284908249974e-05,-8.97293102752883e-06,-1.3643625607073773e-05,5.8358345995657146e-05
-2.5578310669516213e-05,1.3108751772961114e-05,-1.2652789337153081e-05,6.151503475848585e-05
-2.2551372239831835e-05,1.9404371414566413e-05,-1.3578534890257288e-05,6.504688644781709e-05
-2.456617403368e-05,1.1144537893414963e-05,-1.8700095097301528e-05,6.633919110754505e-05
-2.793494422803633e-05,-5.031978616898414e-06,-2.4695815227460116e-05,6.356797530315816e-05
-3.101563561358489e-05,-1.787311521184165e-05,-2.7045092792832293e-05,5.730347766075283e-05
-3.244241088395938e-05,-1.785356471373234e-05,-2.386167034273967e-05,5.4451960750157014e-05
-3.236397969885729e-05,-7.452407317032339e-06,-1.8159109458792955e-05,5.709829929401167e-05
-3.515878051985055e-05,3.353869942657184e-06,-1.485230586695252e-05,5.82030916120857e-05
-3.980988549301401e-05,1.3939509699412156e-05,-1.6024361684685573e-05,5.8606314269127324e-05
-4.1043826058739796e-05,1.99867627088679e-05,-1.846603481681086e-05,6.144910003058612e-05
-3.797038516495377e-05,1.7498670786153525e-05,-2.024522291321773e-05,6.328484596451744e-05
-3.569090040400624e-05,2.0610821593436413e-05,-2.014226083701942e-05,6.642752123298123e-05
-3.670723526738584e-05,3.231354276067577e-05,-1.80963434104342e-05,7.052038563415408e-05
-3.6175482819089666e-05,5.33727761649061e-05,-1.6587862774031237e-05,7.235108205350116e-05
-3.1353574740933254e-05,8.044627611525357e-05,-1.9209770471206866e-05,7.178189844125882e-05
-2.999195748998318e-05,8.372758748009801e-05,-2.27918953896733e-05,6.961372855585068e-05
-2.5051907869055867e-05,5.525460437638685e-05,-1.930317193910014e-05,6.918568396940827e-05
-1.8644499505171552e-05,1.7182921510539018e-05,-1.346585304418113e-05,6.839234993094578e-05
-1.8227783584734425e-05,-1.3331997251952998e-05,-8.540765520592686e-06,6.657583435298875e-05
-2.3238844732986763e-05,-3.8020876672817394e-05,-4.09433823733707e-06,6.582440255442634e-05
-2.8272002964513376e-05,-5.3384079365059733e-05,2.05799423724784e-07,6.605215457966551e-05
-2.8258018573978916e-05,-5.664870695909485e-05,4.876334060099907e-06,6.485715857706964e-05
-2.544960443628952e-05,-4.978564538760111e-05,6.235423370526405e-06,6.056929487385787e-05
-2.2117937987786718e-05,-3.977554661105387e-05,2.538828312026453e-06,5.807393245049752e-05
-2.3021646484266967e-05,-2.4102797397063114e-05,-5.210733888816321e-07,5.7456796639598906e-05
-2.708394094952382e-05,5.236417109699687e-06,-2.932800498456345e-06,5.526132008526474e-05
-3.038672002730891e-05,4.038234328618273e-05,-1.4311290215118788e-05,5.5369608162436634e-05
-2.940199919976294e-05,7.42809206712991e-05,-3.3147040085168555e-05,5.820251317345537e-05
-2.7379403036320582e-05,0.00010763607861008495,-4.864952643401921e-05,5.648345177178271e-05
-2.8882966944365762e-05,0.00012984733621124178,-5.2690938900923356e-05,4.8459329264005646e-05
-3.210123395547271e-05,0.00011713460844475776,-5.353364031179808e-05,4.219396578264423e-05
-3.3857413654914126e-05,6.38338242424652e-05,-7.151345926104113e-05,3.992064739577472e-05
-3.3084907045122236e-05,-1.7616719105717493e-07,-0.00011092345084762201,4.002953937742859e-05
-3.076296343351714e-05,-2.864389716705773e-05,-0.00013791947276331484,4.227913814247586e-05
-2.9157814424252138e-05,-1.577917646500282e-05,-0.00012148542737122625,4.596947837853804e-05
-2.6296316718799062e-05,-6.675651889054279e-07,-7.088290294632316e-05,5.002352554583922e-05
-2.369828689552378e-05,-1.271080782316858e-05,-8.190287189790979e-06,5.39019783900585e-05
-2.9208400519564748e-05,-3.700780507642776e-05,4.8788017011247575e-05,5.7954930525738746e-05
-3.526219370542094e-05,-4.531805097940378e-05,8.650319068692625e-05,5.6540186051279306e-05
-3.532675327733159e-05,-2.9425435059238225e-05,0.00010574523912509903,5.0788807129720226e-05
-3.642394585767761e-05,1.547768420095963e-06,0.00011011471360689029,4.654742588172667e-05
-4.10450084018521e-05,4.293923848308623e-05,0.00010144069528905675,4.528033605311066e-05
-4.543303293758072e-05,8.853674808051437e-05,9.228278213413432e-05,4.8113342927535996e-05
-4.331116724642925e-05,0.0001452099677408114,8.13133519841358e-05,5.06284850416705e-05
-3.767977250390686e-05,0.00019707262981683016,6.578553438885137e-05,5.2127135859336704e-05
-3.169169940520078e-05,0.0002010091848205775,5.351449362933636e-05,5.541575592360459e-05
-2.848643453035038e-05,0.00016448242240585387,3.890572770615108e-05,5.4483069106936455e-05
-2.8773863959941082e-05,0.00011449839075794443,1.844028156483546e-05,5.303931175149046e-05
-2.9440243451972492e-05,5.854313349118456e-05,-1.1221952718187822e-06,5.6168271839851514e-05
-2.9584871299448423e-05,1.8117998479283415e-05,-1.21964430945809e-05,5.8872905356111005e-05
-2.8508777177194133e-05,1.8801163605530746e-05,-1.940142101375386e-05,5.939141919952817e-05
-2.3746310034766793e-05,3.945801290683448e-05,-2.8108937840443105e-05,6.016133556840941e-05
-9.515918463876005e-06,4.760911542689428e-05,-3.738890154636465e-05,6.095044227549806e-05
5.3319581638788804e-06,4.0705319406697527e-05,-4.333113247412257e-05,6.21993895038031e-05
7.639830982952844e-06,4.297516352380626e-05,-4.278333290130831e-05,6.644878885708749e-05
-1.9702151803357992e-06,5.088515536044724e-05,-3.809343616012484e-05,7.134207407943904e-05
-1.2907958989671897e-05,3.1630224839318544e-05,-3.0418850656133145e-05,7.434148574247956e-05
-2.0464121917029843e-05,-1.0814558663696516e-05,-2.1741376258432865e-05,7.564492989331484e-05
-2.5343104425701313e-05,-2.5107647161348723e-05,-1.5749563317513093e-05,7.413973071379587e-05
-2.8635706257773563e-05,1.7304440916632302e-05,-1.3406512152869254e-05,7.046072278171778e-05
-3.077589281019755e-05,7.720631401753053e-05,-1.166753463621717e-05,6.544280040543526e-05
-2.7576401407714002e-05,0.00010487994586583227,-1.1748620636353735e-05,6.252997263800353e-05
-1.9541144865797833e-05,8.183660247595981e-05,-1.0737881893874146e-05,6.500504241557792e-05
-1.3093000234221108e-05,2.9620796340168454e-05,-9.223420420312323e-06,6.914611731190234e-05
-9.496390703134239e-06,-4.653329142456641e-06,-1.282357879972551e-05,6.944148481125012e-05
-6.8388667386898305e-06,-8.11880272522103e-06,-1.5181556591414846e-05,6.664926331723109e-05
-6.1776045185979456e-06,-8.544511729269288e-06,-1.3148635844117962e-05,6.494276749435812e-05
-9.03969703358598e-06,-1.57431550178444e-05,-9.605517334421165e-06,6.404131272574887e-05
-1.4305435797723476e-05,-1.7340167687507346e-05,-5.7398233366257045e-06,6.130581459729001e-05
-1.6266880265902728e-05,-7.468025160051184e-06,-8.433056791545823e-06,5.754292942583561e-05
-1.620795410417486e-05,5.942875759501476e-06,-1.4270977771957405e-05,5.527130633709021e-05
-1.7640528312767856e-05,1.774558040779084e-05,-1.4852956155664288e-05,5.4460491810459644e-05
-1.9250768673373386e-05,2.5157116397167556e-05,-1.5388506653835066e-05,5.712376514566131e-05
-2.394758485024795e-05,3.1364932510768995e-05,-2.021066211455036e-05,6.0175119870109484e-05
-2.825954470608849e-05,4.475675814319402e-05,-2.181827039748896e-05,5.901258555240929e-05
-2.62084613495972e-05,5.736859020544216e-05,-2.0882516764686443e-05,5.274115392239764e-05
-1.8622853531269357e-05,5.388888530433178e-05,-1.9685778170241974e-05,5.000834062229842e-05
-1.2581527698785067e-05,2.380630758125335e-05,-1.5985662685125135e-05,5.052691631135531e-05
-1.4214364455256145e-05,-2.864082853193395e-05,-8.96939127414953e-06,4.8964229790726677e-05
-1.5839230400160886e-05,-7.698875560890883e-05,-2.1711023237003246e-06,4.5824959670426324e-05
-1.4369981727213599e-05,-8.966418681666255e-05,-6.776204486413917e-07,4.4844626245321706e-05
-1.6537074770894833e-05,-5.383865936892107e-05,-2.8178906177345198e-06,4.7722875024192035e-05
-2.216615939687472e-05,-6.449447482737014e-07,-4.541510406852467e-06,4.846599040320143e-05
-2.855295861081686e-05,3.221856240998022e-05,-3.2483121685800143e-06,4.650669507100247e-05
-3.374299194547348e-05,3.960200774599798e-05,-2.08757228392642e-06,4.5579894504044205e-05
-3.620663483161479e-05,3.862262383336201e-05,-7.505745998059865e-06,4.605414142133668e-05
-3.563571590348147e-05,3.969977478845976e-05,-1.9130524378851987e-05,4.5608554501086473e-05
-3.364549411344342e-05,4.114570401725359e-05,-2.725707963691093e-05,4.5760825742036104e-05
-3.236535485484637e-05,4.1076527850236744e-05,-2.70487907982897e-05,4.4712483941111714e-05
-3.173072764184326e-05,3.700212619150989e-05,-1.9978044292656705e-05,4.662578794523142e-05
-3.197551268385723e-05,3.107924567302689e-05,-1.2900241017632652e-05,5.3834741265745834e-05
-3.121843110420741e-05,2.636948374856729e-05,-1.212809274875326e-05,5.956823952146806e-05
-2.9753149647149257e-05,2.3905331545392983e-05,-1.8449380149831995e-05,6.161635246826336e-05
-2.8764325179508887e-05,2.328268783458043e-05,-2.4141296307789162e-05,6.144557119114324e-05
-2.959263110824395e-05,2.5567947886884212e-05,-2.23237402678933e-05,5.955289816483855e-05
-3.1547187973046675e-05,2.2917951355339028e-05,-1.335320484940894e-05,5.8440182328922674e-05
-3.1847863283474e-05,1.7651937014306895e-05,-6.374727945512859e-06,6.115491123637185e-05
-3.137615931336768e-05,1.8509233996155672e-05,-4.129890385229373e-06,6.349069008138031e-05
-3.3186668588314205e-05,1.998301195271779e-05,-3.7537913613050478e-06,6.533675332320854e-05
-3.6655968870036304e-05,2.1827363525517285e-05,-4.462949164008023e-06,6.698976358165964e-05
-3.495488635962829e-05,2.3189368221210316e-05,-4.472355158213759e-06,6.656278856098652e-05
-2.6923715267912485e-05,2.39028267969843e-05,-7.279033525264822e-06,6.877757550682873e-05
-1.982782305276487e-05,2.3663125830353238e-05,-1.2784802493115421e-05,7.207241287687793e-05
-1.7132009816123173e-05,1.9114457245450467e-05,-1.8168821043218486e-05,7.348617509705946e-05
-1.6757308912929147e-05,1.5192147657216992e-05,-1.982315552595537e-05,6.84509432176128e-05
-2.1172387278056704e-05,1.5110521417227574e-05,-1.906021498143673e-05,6.042980749043636e-05
-2.70107266260311e-05,1.7272843251703307e-05,-1.7267984731006436e-05,5.397886343416758e-05
-2.8202985049574636e-05,1.753787000779994e-05,-1.6076897736638784e-05,4.985845953342505e-05
-2.6783947760122828e-05,1.9015065845451318e-05,-1.6597250578342937e-05,4.676579192164354e-05
-2.75318725471152e-05,2.3370299459202215e-05,-1.7216007108800113e-05,4.128159343963489e-05
-3.067246871069074e-05,2.7904992748517543e-05,-1.8002858269028366e-05,3.588207619031891e-05
-3.319743336760439e-05,2.9796512535540387e-05,-1.837863601394929e-05,3.494736665743403e-05
-3.4247568692080677e-05,3.101942638750188e-05,-1.714670543151442e-05,3.746698348550126e-05
-3.218619531253353e-05,2.9976792575325817e-05,-1.4792100046179257e-05,3.988762910012156e-05
-2.8176802516099997e-05,2.543248047004454e-05,-1.3377439245232381e-05,4.20399010181427e-05
-2.6803014407050796e-05,2.3794855223968625e-05,-1.3248039977042936e-05,4.1902672819560394e-05
-2.9277171051944606e-05,2.782678529911209e-05,-1.1121556781290565e-05,4.147436629864387e-05
-3.0431481718551368e-05,3.634278255049139e-05,-5.562133083003573e-06,4.481860378291458e-05
-2.9431539587676525e-05,4.218722096993588e-05,-2.9413170068437466e-06,5.088920079288073e-05
-2.8447799195419066e-05,3.9570615626871586e-05,-4.712113423011033e-06,5.658006921294145e-05
-2.9820461350027472e-05,3.1984753150027245e-05,-6.9570755840686616e-06,6.553808634635061e-05
-3.304321217001416e-05,2.465153011144139e-05,-7.13143481334555e-06,6.944699998712167e-05
-3.1675092031946406e-05,2.4895995011320338e-05,-2.3835038973629707e-06,7.120458758436143e-05
-2.7516625777934678e-05,3.434101745369844e-05,3.339956720083137e-06,7.652051135664806e-05
-2.413554466329515e-05,3.918637230526656e-05,3.5369159832043806e-06,7.726492913207039e-05
-1.8639790141605772e-05,3.6796933272853494e-05,-1.1169915978825884e-06,7.126281707314774e-05
-1.711389995762147e-05,3.489392111077905e-05,-4.2264618969056755e-06,5.4657906730426475e-05
-2.1257154003251344e-05,2.9418213671306148e-05,-2.792536179185845e-06,3.068924343097024e-05
-2.2837337382952683e-05,2.062241401290521e-05,-7.687790457566734e-07,1.5019075362943113e-05
-2.0407027477631345e-05,1.8226875909022056e-05,-3.0429586672653386e-07,1.5790732504683547e-05
-1.940878246387001e-05,2.6654350222088397e-05,-2.8161196041764924e-06,1.924289608723484e-05
-2.2816137061454356e-05,4.693512528319843e-05,-3.892691438522888e-06,1.7197307897731662e-05
-2.7968446374870837e-05,6.543614290421829e-05,-2.5364588509546593e-06,1.6307132682413794e-05
-2.961732207040768e-05,6.943355401745066e-05,-3.234961923226365e-06,2.348171801713761e-05
-2.7158448574482463e-05,6.074159318814054e-05,-6.62145612295717e-06,3.716096034622751e-05
-2.5023980924743228e-05,4.4716598495142534e-05,-8.602030902693514e-06,5.1231476390967146e-05
-2.4899896743590944e-05,2.6294952476746403e-05,-7.949902283144183e-06,6.58986609778367e-05
-2.8418962756404653e-05,1.0826099241967313e-05,-8.838489520712756e-06,8.488956518704072e-05
-3.273357287980616e-05,-4.811781195712683e-07,-1.338766287517501e-05,0.00010527722770348191
-3.615971945691854e-05,-1.319008970313007e-05,-2.045587643806357e-05,0.0001181425541290082
-3.808276596828364e-05,-2.857018625945784e-05,-2.6260566301061772e-05,0.0001201441918965429
-3.6917444958817214e-05,-3.8800611946498975e-05,-2.7189373213332146e-05,0.00011588963388931006
-3.363793439348228e-05,-3.76774332835339e-05,-2.314047742402181e-05,0.00011317919415887445
-3.256498894188553e-05,-2.799563662847504e-05,-2.0326026060502045e-05,0.00010698787082219496
-3.178498081979342e-05,-1.6043462892412208e-05,-2.206007957283873e-05,9.560946637066081e-05
-2.9968758099130355e-05,-4.65627817902714e-06,-2.5108018235187046e-05,8.431621245108545e-05
-3.0156010325299576e-05,1.128981512010796e-05,-2.5141340302070603e-05,7.934936002129689e-05
-2.7190850232727826e-05,2.8005222702631727e-05,-2.4085880795610137e-05,8.08968034107238e-05
-2.0647064957302064e-05,3.6792927858186886e-05,-2.2059864932089113e-05,7.905240636318922e-05
-2.114349445037078e-05,4.6843615564284846e-05,-1.7021693565766327e-05,7.500302308471873e-05
-2.9584003641502932e-05,6.448088970500976e-05,-9.328773558081593e-06,6.50092406431213e-05
-3.610069688875228e-05,8.802154479781166e-05,-5.763263288827147e-06,3.911786916432902e-05
-3.8179627154022455e-05,0.00010396221478004009,-6.3667757785879076e-06,-3.0424575925280806e-06
-3.991270568803884e-05,9.473714453633875e-05,-5.825871085107792e-06,-2.953391413029749e-05
-4.3209023715462536e-05,6.435024261008948e-05,-5.001537829230074e-06,-6.20348191660014e-06
-4.267668555257842e-05,3.7959882320137694e-05,-8.334673680110427e-07,5.403678733273409e-05
-3.9243517676368356e-05,3.261942038079724e-05,5.988937118672766e-06,0.00010692351497709751
-3.50348163919989e-05,4.432546120369807e-05,8.93699143489357e-06,0.00012546450307127088
-3.193615339114331e-05,5.8117184380535036e-05,6.677547389699612e-06,0.00012108845839975402
-3.3088872442021966e-05,4.802667172043584e-05,3.1675169793743407e-06,0.00011613059177761897
-3.698417276609689e-05,1.3306383152666967e-05,1.6486125105075189e-06,0.00011776539759011939
-3.581435885280371e-05,-1.9259683540440165e-05,5.867944423698646e-07,0.00012079197040293366
-2.4378874513786286e-05,-1.835946022765711e-05,-3.0829232855467126e-06,0.00012143655476393178
-9.870977919490542e-06,2.204105294367764e-05,-6.8164131334924605e-06,0.00012124465138185769
-1.5759608231746824e-06,7.412346894852817e-05,-7.1793388087826315e-06,0.00011484693095553666
-3.0977598726167344e-06,0.00010907665273407474,-5.871998382644961e-06,8.035083737922832e-05
-1.1963112228841055e-05,0.00011727176024578512,-8.00837642600527e-06,2.059971484413836e-05
-2.596116428321693e-05,0.00010067129915114492,-1.3899979421694297e-05,-2.3106154912966304e-05
-3.8449597923317924e-05,7.148510485421866e-05,-1.9526534742908552e-05,-3.6858302337350324e-05
-3.892857421305962e-05,5.393257742980495e-05,-2.30408495554002e-05,-3.683247996377759e-05
-2.483972093614284e-05,5.577143019763753e-05,-2.3321235858020373e-05,-2.691140070965048e-05
-8.999707461043727e-06,5.045133366365917e-05,-2.184566437790636e-05,-1.5077612260938622e-05
-8.605241418990772e-06,-2.2971526050241664e-06,-2.1582871340797283e-05,-1.0349261174269486e-05
-2.3923581466078758e-05,-0.00010683315485948697,-2.056579978670925e-05,-4.458677722141147e-06
-3.7961595808155835e-05,-0.00021099847799632698,-2.2240175894694403e-05,2.1657255274476483e-05
-4.227465615258552e-05,-0.00026368105318397284,-2.5512254069326445e-05,7.842508057365194e-05
-4.662737046601251e-05,-0.0002696623560041189,-2.6090967367053963e-05,0.00018339327652938664
-5.843590770382434e-05,-0.00024391130136791617,-2.3772110580466688e-05,0.0002678453747648746
-5.199045335757546e-05,-0.00016505476378370076,-1.2659600542974658e-05,0.0002442032564431429
-1.684975541138556e-05,-4.282387817511335e-05,1.0990633199980948e-05,0.0001654751249589026
1.535351839265786e-05,8.322777284774929e-05,3.230183938285336e-05,8.460161188850179e-05
1.756559868226759e-05,0.0001891307474579662,3.754598583327606e-05,2.477108318998944e-05
-1.1411340892664157e-05,0.00022781937150284648,3.0287090339697897e-05,1.6511103240191005e-05
-4.376026117824949e-05,0.0001708383933873847,1.7775710148271173e-05,3.93314148823265e-05
-5.686560325557366e-05,7.047698454698548e-05,3.5192310861020815e-06,4.588777301250957e-05
-4.650707705877721e-05,7.403538802464027e-06,-1.0119889338966459e-05,1.690892895567231e-05
-2.4474804376950487e-05,-1.003228931040212e-06,-1.4889637895976193e-05,3.937112978746882e-06
-4.324905603425577e-06,-9.772300018084934e-07,-1.0580208254395984e-05,6.20140417595394e-05
5.906974465119674e-08,-4.014432488474995e-05,-1.8703588011703687e-06,0.00014273285341914743
-1.2290978702367283e-05,-9.06970162759535e-05,7.438562761308276e-07,0.00018795617506839335
-2.756017966021318e-05,-9.368483006255701e-05,-3.2433301839773776e-06,0.0001981611712835729
-3.687903517857194e-05,-5.0145634304499254e-05,-9.391619641974103e-06,0.00018676910258363932
-3.740799002116546e-05,4.379511153729254e-07,-1.6521111319889314e-05,0.00014132357318885624
-2.6118157620658167e-05,3.618942355387844e-05,-2.3686492568231188e-05,5.9644797147484496e-05
-6.079516879253788e-06,5.2540483011398464e-05,-2.8785691029042937e-05,-3.143253707094118e-05
1.7814769535107189e-06,4.3052812543464825e-05,-3.423031739657745e-05,-0.00011180638830410317
-8.584122042520903e-06,1.7736805602908134e-05,-4.132451067562215e-05,-0.0001810657122405246
-2.3823742594686337e-05,2.4379204432989354e-08,-4.289331991458312e-05,-0.00021339642989914864
-3.6044315493199974e-05,-6.536075488838833e-06,-3.483637919998728e-05,-0.0001826218795031309
-4.244266528985463e-05,-8.016872925509233e-06,-1.9892009731847793e-05,-0.0001297158160014078
-4.084506508661434e-05,1.6217061784118414e-05,-1.1329696008033352e-06,-6.0971902712481096e-05
-2.841386231011711e-05,8.839472866384313e-05,2.0585743186529726e-05,2.7456440875539556e-05
-6.184150151966605e-06,0.00018424120207782835,3.5666842450154945e-05,9.965887147700414e-05
1.0683156688173767e-05,0.0002570940996520221,4.225882003083825e-05,0.00014684790221508592
7.888922482379712e-06,0.00027520768344402313,4.095399344805628e-05,0.00018315926718059927
-1.2259895811439492e-05,0.00024682641378603876,3.773345815716311e-05,0.00022773641103412956
-4.088055356987752e-05,0.00020962339476682246,2.996813054778613e-05,0.00026462864479981363
-4.849377000937238e-05,0.00018439569976180792,1.5857800462981686e-05,0.00024238013429567218
-1.6640920875943266e-05,0.00014030319289304316,1.0149675517823198e-06,0.00016095757018774748
1.2149743270128965e-05,1.5533098121522926e-05,-1.9022298147319816e-05,6.955789285711944e-05
1.1243678272876423e-05,-0.00013725490134675056,-4.5224853238323703e-05,-6.994808245508466e-06
-4.461250682652462e-06,-0.00022853862901683897,-6.554347783094272e-05,-5.788766065961681e-05
-8.320523193106055e-06,-0.00022464401263277978,-6.894046236993745e-05,-6.007298725307919e-05
-1.817879592636018e-06,-0.00014805785031057894,-5.8240526414010674e-05,-3.125621879007667e-05
1.2795611610272317e-06,-6.300273525994271e-05,-4.3026717321481556e-05,-8.79701656231191e-06
1.1360790267644916e-05,-2.9380020350799896e-05,-2.7676955141942017e-05,-1.315154349867953e-05
2.9460343284881674e-05,-4.6077315346337855e-05,-1.0824366654560436e-05,-2.5154613467748277e-05
3.9108410419430584e-05,-5.431562021840364e-05,6.08822847425472e-06,6.909107014507754e-06
2.7150990717927925e-05,-2.943103936559055e-05,1.6014155335142277e-05,0.0001125017661252059
8.662293112138286e-06,1.256165069207782e-05,1.7110312910517678e-05,0.0002551776124164462
3.3967285162361804e-06,5.462245462695137e-05,1.4884163647366222e-05,0.00034164715907536447
1.1254552418904495e-06,0.00010659298277460039,1.1108838407380972e-05,0.0003404873132240027
-2.22099079110194e-05,0.0001713563542580232,5.121864887769334e-06,0.0002920051047112793
-6.514727283501998e-05,0.00022805744083598256,-2.1463108623720473e-06,0.00021207501413300633
-0.00011001882376149297,0.00023924981360323727,-1.0176249816140626e-05,0.0001288244384340942
-0.00013724066957365721,0.00019387522479519248,-2.1400872356025502e-05,0.00011147707846248522
-0.00013912536087445915,0.00011635697592282668,-3.3868058380903676e-05,9.221117215929553e-05
-0.00012164966756245121,6.364578439388424e-05,-3.958822708227672e-05,-1.177604281110689e-05
-9.663269884185866e-05,6.0666909121209756e-05,-3.5400076740188524e-05,-6.469015352195129e-05
-6.802855932619423e-05,4.1161176341120154e-05,-2.6386051104054786e-05,-3.278837539255619e-05
-3.3127340429928154e-05,-4.397315206006169e-05,-1.8452961739967577e-05,-1.975028499145992e-05
-7.550475402240409e-06,-0.00011185920448042452,-1.7571992430021055e-05,-2.4859811674105003e-05
5.526072186512465e-07,-0.00011971654021181166,-2.144818972737994e-05,-5.5415628594346344e-05
7.213076855805411e-07,-0.00010584266419755295,-2.9581829949165694e-05,-0.00012903072638437152
-3.294601128800423e-06,-7.038413605187088e-05,-3.512957482598722e-05,-0.00018267489213030785
-1.0816347639774904e-06,-2.702259189391043e-05,-3.351048144395463e-05,-0.00015854564844630659
5.035799858887913e-06,-1.5958208678057417e-05,-3.4877411962952465e-05,-9.48143788264133e-05
4.9807918003352825e-06,-2.98961422231514e-05,-4.252188227837905e-05,-3.1627358112018555e-05
5.217552825342864e-07,-2.9858407287974842e-05,-4.391323454910889e-05,1.490850900154328e-05
-6.692308943456737e-06,-1.658295514062047e-05,-3.078276859014295e-05,2.075457996397745e-05
-2.1334804841899313e-05,9.54674123931909e-06,-1.4050767276785336e-05,-9.613643669581506e-06
-4.344102126196958e-05,3.367007593624294e-05,-4.3324580474291e-06,-4.644462751457468e-05
-5.797853373223916e-05,4.819260720978491e-05,-4.813400209968677e-06,-7.506796100642532e-05
-5.921348565607332e-05,6.281645619310439e-05,-1.033303215081105e-05,-7.647126767551526e-05
-5.2188664994901046e-05,7.863206701586023e-05,-1.255491588381119e-05,-2.8679341994575225e-05
-4.71579514851328e-05,7.737051055300981e-05,-6.2866774896974675e-06,5.073011925560422e-05
-4.35980582551565e-05,4.754873225465417e-05,2.3465074718842516e-06,0.00011430744780227542
-3.2317817385774106e-05,9.387404134031385e-06,4.734390131488908e-06,0.00013256288366392255
-1.3252173630462494e-05,-3.218231722712517e-05,-7.315506991290022e-07,0.00012003413576167077
-4.9675218178890646e-06,-8.903953857952729e-05,-9.117952686210629e-06,9.660486102802679e-05
-1.6627618606435135e-05,-0.0001270394423045218,-1.3086367289361078e-05,6.94283444317989e-05
-3.694453334901482e-05,-0.00010216427472187206,-1.3405349818640389e-05,3.670819933176972e-05
-5.2461313316598535e-05,-4.22532029915601e-05,-1.0844174539670348e-05,-8.190035259758588e-06
-5.254117786535062e-05,6.091245722927852e-06,-7.6177129813004285e-06,-5.567369589698501e-05
-3.2561845728196204e-05,2.7884459996130317e-05,-8.682680345373228e-06,-8.707857341505587e-05
-8.962159881775733e-06,2.8344273232505657e-05,-1.0291142643836793e-05,-9.26928551052697e-05
-1.2278528629394714e-05,2.996041439473629e-05,-8.93785272637615e-06,-5.145313116372563e-05
-4.090688889846206e-05,5.581968434853479e-05,-9.70631208474515e-06,4.164323036093265e-05
-6.22854131506756e-05,8.502730634063482e-05,-1.3689153092855122e-05,0.0001236879761563614
-6.583815411431715e-05,9.77918753051199e-05,-1.6968448107945733e-05,0.00015434788656421006
-6.260677764657885e-05,9.057539136847481e-05,-1.88907597475918e-05,0.00020306743681430817
-5.020026583224535e-05,7.413274579448625e-05,-1.8677106709219515e-05,0.00030011130729690194
-2.078996658383403e-05,6.792279600631446e-05,-1.5564930436084978e-05,0.0003593157744035125
2.7125073756906204e-05,6.961062172194943e-05,-1.020514901028946e-05,0.0002997982082888484
6.171723362058401e-05,7.296731200767681e-05,-1.0731576367106754e-05,0.0001805554929887876
5.4192521929508075e-05,6.2111510487739e-05,-1.6457430319860578e-05,7.35583234927617e-05
1.3865788787370548e-05,3.116059451713227e-05,-1.8388458556728438e-05,-2.6869383873417974e-06
-2.8385136829456314e-05,2.315640631422866e-05,-1.5272446034941822e-05,-9.951093488780316e-06
-4.883113069809042e-05,7.057368202367797e-05,-9.844526175584178e-06,4.482593431021087e-05
-4.907096445094794e-05,0.00013275390665512532,-6.378277703333879e-06,0.00011039069067919627
-4.313411409384571e-05,0.0001537273492431268,-4.469821988095646e-07,0.00015367234300356358
-3.964896313846111e-05,0.00014273238775786012,7.483155059162527e-06,0.00017536176892463118
-3.209976785001345e-05,0.0001569844753248617,4.842449470743304e-06,0.00018040442955680192
-1.8748323782347143e-05,0.00020987722382415086,-1.407352010573959e-05,0.00016597968351561576
-8.501118827553e-06,0.00026861956575885415,-3.032324275409337e-05,0.0001342082250630483
-8.731094567338005e-06,0.00028950965497642756,-2.8950857085874304e-05,9.645464160712436e-05
-1.9933841031161137e-05,0.0002388226566836238,-1.6728856280678883e-05,5.561611396842636e-05
-3.946109063690528e-05,0.00012024727038806304,-5.9434055401652586e-06,1.415213591826614e-05
-5.9700127167161554e-05,-3.258912329329178e-05,1.1248503142269328e-06,-1.8904038370237686e-05
-7.2732254920993e-05,-0.00017874759214464575,7.932369953778107e-06,-3.538298551575281e-05
-7.817766163498163e-05,-0.0002501688140910119,1.78848367795581e-05,-3.842594742309302e-05
-7.106060365913436e-05,-0.00020019068324472755,2.8202208341099322e-05,-3.629696948337369e-05
-4.8880196118261665e-05,-0.00010210516484221444,3.448922507232055e-05,-2.828920514730271e-05
-2.978057091240771e-05,-4.896800237474963e-05,3.683263639686629e-05,-8.791892469162121e-06
-2.436881732137408e-05,-3.73417824448552e-05,2.8923637728439644e-05,1.7125825252151117e-05
-2.792989107547328e-05,-4.6853350795572624e-05,1.3135331755620427e-05,4.661410639528185e-05
-2.571879667812027e-05,-4.723494566860609e-05,-4.2022179513878655e-07,7.33392735128291e-05
-1.0241204108751845e-05,-1.7849462892627344e-05,-2.6661807623895584e-06,8.971661009127274e-05
-2.506529881429742e-06,4.540208010439528e-06,-1.0636135812092107e-06,0.0001077036649803631
-1.103443810279714e-05,-4.686825832322938e-06,-6.303836016741116e-06,0.0001272349472856149
-1.2543302545964252e-05,-2.4142327674780972e-05,-1.3272167052491568e-05,0.0001139546511694789
-1.3497241297955043e-06,-1.4363156878971495e-05,-1.6036909073591232e-05,7.81941125751473e-05
7.470554919564165e-06,1.3537437553168274e-05,-1.483381765865488e-05,5.435925049823709e-05
7.107768851710716e-06,1.5253360288625117e-05,-1.479866295994725e-05,4.849230026593432e-05
2.479087925166823e-06,-1.388765849696938e-05,-1.955076731974259e-05,5.090846025268547e-05
-1.8092952132064966e-06,-5.1718365284614265e-05,-2.2525584427057765e-05,5.557593976845965e-05
-9.120515642280225e-06,-9.736679203342646e-05,-2.102270445902832e-05,6.547096563735977e-05
-1.5666686522308737e-05,-0.00014645342889707536,-2.0534253053483553e-05,7.691724749747664e-05
-1.852198147389572e-05,-0.00017504370771348476,-2.3440341465175152e-05,8.497008820995688e-05
-2.1198977265157737e-05,-0.00015838281251490116,-2.5952369469450787e-05,8.415878983214498e-05
-2.5617177016101778e-05,-9.271390445064753e-05,-2.4436783860437572e-05,8.482488192385063e-05
-2.7700609280145727e-05,2.890508596919972e-07,-1.8988777810591273e-05,9.031830995809287e-05
-2.4738657884881832e-05,7.803265907568857e-05,-1.1262232874287292e-05,9.440847497899085e-05
-1.9282084394944832e-05,0.00010028927499661222,-2.4407909222645685e-06,9.287322609452531e-05
-1.5088851796463132e-05,6.342249980662018e-05,5.248604793450795e-06,9.288467117585242e-05
-1.291887656407198e-05,9.24675532587571e-06,8.342155524587724e-06,9.620903438189998e-05
-7.360279596468899e-06,-5.023331141273957e-06,8.757942850934342e-06,9.621728531783447e-05
1.6175030168597004e-06,1.3607454093289562e-05,1.0172448128287215e-05,9.036404662765563e-05
4.021193035441684e-06,1.2861301911470946e-05,1.0097327503899578e-05,8.252363477367908e-05
-6.046667294867802e-06,-1.4354742233990692e-05,4.844183422392234e-06,7.6832075137645e-05
-2.006110480579082e-05,-3.070043749175966e-05,-4.158254341746215e-06,7.253272633533925e-05
-2.8645195925491862e-05,-1.0629387361404952e-05,-1.2384530236886349e-05,6.212052539922297e-05
-3.3264837838942185e-05,5.206541027291678e-05,-1.5565534340566956e-05,3.305322024971247e-05
-3.554360955604352e-05,0.00012825777230318636,-1.5578318198095076e-05,-1.1859067853947636e-05
-3.426576222409494e-05,0.00016563953249715269,-1.4334061233967077e-05,-3.713789556059055e-05
-3.300976095488295e-05,0.00015599519247189164,-1.3799359294353053e-05,-2.2239926693146117e-05
-3.181726788170636e-05,0.00012504587357398123,-1.2382762179186102e-05,5.225640052231029e-06
-2.808963654388208e-05,9.61313780862838e-05,-1.046271063387394e-05,2.6852134396904148e-05
-2.658234370755963e-05,8.09103439678438e-05,-1.372629230900202e-05,4.5629843953065574e-05
-2.8958305847481824e-05,7.340022420976311e-05,-2.3320359105127864e-05,6.245026452234015e-05
-3.436499537201598e-05,7.791635289322585e-05,-3.237708369852044e-05,7.239539991132915e-05
-3.7702222471125424e-05,9.518816659692675e-05,-2.7828235033666715e-05,7.521150109823793e-05
-3.809631016338244e-05,9.609468543203548e-05,-1.0279661182721611e-05,7.589135930174962e-05
-3.712875331984833e-05,6.761922122677788e-05,1.1554203638297622e-06,7.588395237689838e-05
-3.7151512515265495e-05,3.28663554682862e-05,-5.71311966268695e-06,7.195134094217792e-05
-3.811541319009848e-05,1.2243413948453963e-05,-2.2558460841537453e-05,6.338860839605331e-05
-3.8335914723575115e-05,6.939873401279328e-06,-3.560759796528146e-05,5.725003939005546e-05
-3.679473593365401e-05,1.5815125152585097e-05,-4.366771463537589e-05,5.690125180990435e-05
-3.176381142111495e-05,3.508685404085554e-05,-5.774336386821233e-05,5.6582179240649566e-05
-2.73775149253197e-05,5.779964703833684e-05,-8.384310058318079e-05,5.520402191905305e-05
-2.4814604330458678e-05,7.721418660366908e-05,-0.00010266287426929921,5.691655314876698e-05
-2.352092633373104e-05,8.569880446884781e-05,-9.258926002075896e-05,5.8928308135364205e-05
-2.0284956917748787e-05,8.269022509921342e-05,-5.7909623137675226e-05,5.373965541366488e-05
-1.9157243514200673e-05,7.691978680668399e-05,-1.6558591596549377e-05,4.343606633483432e-05
-2.037401463894639e-05,7.688054029131308e-05,1.912631887535099e-05,3.503549305605702e-05
-1.9151400920236483e-05,7.492155418731272e-05,3.982804628321901e-05,3.052616011700593e-05
-1.5368885215139017e-05,7.327319326577708e-05,4.395013820612803e-05,2.8832560929004103e-05
-1.2708898793789558e-05,8.27674157335423e-05,4.3992662540404126e-05,3.140075205010362e-05
-1.3361122000787873e-05,6.452634988818318e-05,4.1672181396279484e-05,3.287962681497447e-05
-1.8194552467321046e-05,-7.257869583554566e-06,3.3219494071090594e-05,2.704640428419225e-05
-2.5562161681591533e-05,-6.601236236747354e-05,2.2607877326663584e-05,2.009800482483115e-05
-2.603678331070114e-05,-7.0733338361606e-05,2.4774582925601862e-05,2.0370542188175023e-05
-2.0769039110746235e-05,-4.976382842869498e-05,4.257708860677667e-05,3.5522502003004774e-05
-2.253860111522954e-05,-2.0774574295501225e-05,5.2986903028795496e-05,6.608071271330118e-05
-3.0711275030625984e-05,2.714868514885893e-06,3.8760521420044824e-05,9.716931526781991e-05
-3.721519169630483e-05,5.648958449455677e-06,1.2320137102506123e-05,0.00011679035378620028
-4.0673308831173927e-05,-1.0296756045136135e-05,-1.1871780770889018e-05,0.00012314587365835905
-4.199962495476939e-05,-2.2647875084658153e-05,-4.0342358261113986e-05,0.00011741310299839824
-4.5247103116707876e-05,-2.149549254681915e-05,-7.004340295679867e-05,0.00010700015991460532
-4.891728895017877e-05,-2.0951812985003926e-05,-8.120441634673625e-05,9.611943823983893e-05
-4.9227171984966844e-05,-2.4177665181923658e-05,-6.615145684918389e-05,8.456109935650602e-05
-4.5929860789328814e-05,-2.2697724489262328e-05,-4.056399848195724e-05,7.276700489455834e-05
-4.1104434785665944e-05,-1.1875297786900774e-05,-1.916995461215265e-05,6.645168468821794e-05
-3.5974440834252164e-05,-3.533014876211382e-07,-2.710279204620747e-06,6.895953265484422e-05
-3.192207805113867e-05,8.473505658912472e-06,1.0207510968029965e-05,7.258162077050656e-05
-3.067922807531431e-05,1.9183920812793076e-05,1.791461545508355e-05,6.836526881670579e-05
-3.20876861223951e-05,3.1818432034924626e-05,2.0564826627378352e-05,6.365137232933193e-05
-3.6320514482213184e-05,4.330347292125225e-05,1.844109829107765e-05,6.501291500171646e-05
-4.019956395495683e-05,5.5931501265149564e-05,1.0727015251177363e-05,6.886349729029462e-05
-4.028648982057348e-05,7.060907228151336e-05,-1.2130109325880767e-06,7.506198016926646e-05
-3.693567850859836e-05,7.333918620133772e-05,-1.4797605217609089e-05,8.35942555568181e-05
-2.8366366677801125e-05,6.362602289300412e-05,-3.130472396151163e-05,8.995612733997405e-05
-1.6108308045659214e-05,5.61826782359276e-05,-4.0674811316421255e-05,8.447296568192542e-05
-6.508460955956252e-06,5.8966448705177754e-05,-2.9122707928763703e-05,7.118111534509808e-05
-7.210647709143814e-06,6.071848110877909e-05,-9.628411135054193e-06,5.867665822734125e-05
-1.766830973792821e-05,3.230082802474499e-05,7.001482345003751e-07,5.407590288086794e-05
-2.4126966309268028e-05,-2.6717323180491803e-06,2.3771888209012104e-06,6.0718484746757895e-05
-2.4864326405804604e-05,-1.3094049791106954e-06,7.327694220293779e-06,6.744757411070168e-05
-2.4040213247644715e-05,2.2606163838645443e-05,1.2763541235472076e-05,6.648122507613152e-05
-2.5230607207049616e-05,4.840632391278632e-05,1.1919757525902241e-05,5.496280937222764e-05
-3.0763087124796584e-05,7.46416553738527e-05,9.219098501489498e-06,4.013186844531447e-05
-3.597568138502538e-05,0.0001065139367710799,8.430804882664233e-06,2.781227885861881e-05
-3.371035563759506e-05,0.00013050039706286043,1.4468109839071985e-05,1.519458328402834e-05
-2.6947984224534594e-05,0.0001225885353051126,2.4789716917439364e-05,1.0457313692313619e-05
-2.5658595404820517e-05,8.36993203847669e-05,2.8371692678774707e-05,1.9752416847040877e-05
-2.8207268769619986e-05,4.3708532757591456e-05,1.8346872820984572e-05,3.560096229193732e-05
-2.8716271117446013e-05,2.9365182854235172e-05,8.960525519796647e-06,4.762091703014448e-05
-2.5741575882420875e-05,3.984231443610042e-05,1.036727917380631e-05,5.5003856687108055e-05
-2.0993251382606104e-05,5.583212259807624e-05,1.85023236554116e-05,5.9042715292889625e-05
-1.5866376998019405e-05,5.9926802350673825e-05,2.6033070753328502e-05,6.214765016920865e-05
-1.1499823813210241e-05,3.742083936231211e-05,2.870404568966478e-05,6.624243542319164e-05
-7.963934876897838e-06,-1.529525252408348e-05,2.1815636500832625e-05,6.947226211195812e-05
-7.3722753768379334e-06,-8.2377293438185e-05,8.577893822803162e-06,6.76964336889796e-05
-1.0665435183909722e-05,-0.00012724542466457933,-2.517864459150587e-06,6.307170406216756e-05
-1.4895446838636417e-05,-0.00012345337017904967,-1.0412244591861963e-05,6.006568582961336e-05
-1.674797385931015e-05,-8.04832816356793e-05,-1.660912312217988e-05,5.97756625211332e-05
-1.624121068743989e-05,-2.9305427233339287e-05,-1.8125672795576975e-05,6.155643495731056e-05
-1.3464989933709148e-05,9.849944945017342e-06,-1.5780817193444818e-05,6.176697206683457e-05
-1.0824243872775696e-05,3.6446905141929165e-05,-1.3364443475438748e-05,5.7682784245116636e-05
-1.3046015737927519e-05,4.7324312618002295e-05,-1.1542510037543252e-05,4.92998406116385e-05
-1.956730557139963e-05,4.8606238124193624e-05,-1.2440376849554013e-05,4.273704325896688e-05
-2.7811400286736898e-05,4.81029819638934e-05,-1.45934409374604e-05,4.0045095374807715e-05
-3.4602126106619835e-05,4.190042454865761e-05,-2.3001193767413497e-05,3.7285521102603525e-05
-3.5458229831419885e-05,3.434020982240327e-05,-3.008021849382203e-05,3.5789682442555204e-05
-2.8939895855728537e-05,3.166872193105519e-05,-2.9897515560151078e-05,3.792821735260077e-05
-2.1540265151998028e-05,3.4865726775024086e-05,-2.60020333371358e-05,4.2216135625494644e-05
-1.9122262528981082e-05,3.565112638170831e-05,-2.2504973458126187e-05,4.660695412894711e-05
-2.0884399418719113e-05,3.181982538080774e-05,-2.174028668378014e-05,4.549084042082541e-05
-2.5177414499921724e-05,3.276063216617331e-05,-2.232637780252844e-05,4.308271672925912e-05
-2.790833059407305e-05,4.5078046241542324e-05,-2.3556915039080195e-05,4.2486328311497346e-05
-2.793285239022225e-05,6.34136376902461e-05,-2.7279515052214265e-05,3.939401722163893e-05
-2.6913892725133337e-05,6.7841203417629e-05,-3.377149550942704e-05,3.803404979407787e-05
-2.9041586458333768e-05,6.214604218257591e-05,-3.6858538805972785e-05,4.4536216591950506e-05
-3.2878258934943005e-05,5.032165427110158e-05,-3.377827670192346e-05,5.40785476914607e-05
-3.464955079834908e-05,3.7279365642461926e-05,-2.801899245241657e-05,5.682402479578741e-05
-3.5763074265560135e-05,2.6437855922267772e-05,-2.4500381186953746e-05,5.295708615449257e-05
-3.5358909372007474e-05,2.0646501070586964e-05,-2.587824383226689e-05,4.9142108764499426e-05
-3.471612581051886e-05,1.5365621948149055e-05,-2.7449581466498785e-05,5.029587191529572e-05
-3.514101626933552e-05,7.476022801711224e-06,-2.3854203391238116e-05,6.008777563693002e-05
-3.491649476927705e-05,4.5532706849371607e-07,-1.5972293113009073e-05,7.280425779754296e-05
-3.4652101021492854e-05,-7.930655556265265e-06,-1.0306588592357002e-05,7.902944344095886e-05
-3.70530724467244e-05,-1.737365710141603e-05,-9.53408562054392e-06,7.672513311263174e-05
-3.808323526754975e-05,-1.835746479628142e-05,-9.273455361835659e-06,7.131243182811886e-05
-3.415584797039628e-05,-6.569968263647752e-06,-1.0407931767986156e-05,7.025800732662901e-05
-2.7910004064324312e-05,2.6884399630944245e-06,-1.4287615158536937e-05,7.347404607571661e-05
-2.5981320504797623e-05,2.9192465262894984e-06,-1.8646469470695592e-05,7.221706619020551e-05
-2.7405161745264195e-05,-4.86504950458766e-06,-1.914871609187685e-05,6.068220318411477e-05
-2.460057112330105e-05,-9.15192322281655e-06,-1.5000174244050868e-05,4.860654007643461e-05
-2.2559390345122665e-05,-2.1392343114712276e-06,-1.145023270510137e-05,4.06191757065244e-05
-2.5059012841666117e-05,6.283205493673449e-06,-1.3970687177788932e-05,3.249325163778849e-05
-2.9156493837945163e-05,6.489973998213827e-07,-2.1737281713285483e-05,2.7500886062625796e-05
-3.349807593622245e-05,-8.70603798830416e-06,-2.690520886972081e-05,2.870176831493154e-05
-3.14141834678594e-05,-9.951451829692814e-06,-2.4051652872003615e-05,4.0199181967182085e-05
-2.9930361051810905e-05,-1.2481857993407175e-05,-1.6982745364657603e-05,5.7597335398895666e-05
-3.401670983294025e-05,-2.081014281429816e-05,-1.28279343698523e-05,7.138253567973152e-05
-3.603368531912565e-05,-1.919166970765218e-05,-1.5914083633106202e-05,8.025701390579343e-05
-3.3674445148790255e-05,-6.250766659832152e-07,-1.957307722477708e-05,8.188349602278322e-05
-3.2233921956503764e-05,3.092398401349783e-05,-1.884769335447345e-05,7.542126695625484e-05
-3.1978073820937425e-05,6.126731750555336e-05,-1.654276820772793e-05,6.272462633205578e-05
-2.993819725816138e-05,7.102604286046699e-05,-1.3981059964862652e-05,4.893769801128656e-05
-2.6938931114273146e-05,6.681334343738854e-05,-1.1828274182335008e-05,3.464725523372181e-05
-2.1955960619379766e-05,6.713857146678492e-05,-1.2417400284903124e-05,2.3436357878381386e-05
-1.8235668903798796e-05,7.070571155054495e-05,-1.2065339433320332e-05,2.785287688311655e-05
-1.859798612713348e-05,6.86860948917456e-05,-7.94768402556656e-06,4.9723428674042225e-05
-2.3819387934054248e-05,6.161651253933087e-05,-3.293979943919112e-06,6.923057662788779e-05
-2.8038357413606718e-05,5.312533176038414e-05,-1.8123599829777959e-06,7.176437793532386e-05
-2.9633145459229127e-05,5.676206637872383e-05,-1.7930452713699196e-06,6.853115337435156e-05
-2.841410241671838e-05,7.126900891307741e-05,1.6672651099725044e-06,7.41765252314508e-05
-2.5770717911655083e-05,6.77479911246337e-05,5.805321052321233e-06,7.93091967352666e-05
-2.385836160101462e-05,2.697377567528747e-05,2.873423454730073e-06,7.203219138318673e-05
-2.204537122452166e-05,-3.632856169133447e-05,-7.761326742183883e-06,5.8784029533853754e-05
-1.9299917767057195e-05,-9.390013292431831e-05,-1.859540498116985e-05,4.9845042667584494e-05
-1.543476537335664e-05,-0.0001187390589620918,-2.4367545847781003e-05,5.125651659909636e-05
-1.3597299584944267e-05,-0.00010041028872365132,-2.4365175704588182e-05,5.805831460747868e-05
-1.540542689326685e-05,-7.026915409369394e-05,-2.2206200810614973e-05,6.263360410230234e-05
-2.2345961042447016e-05,-5.2591381972888485e-05,-2.39834171225084e-05,6.289538578130305e-05
-3.447218477958813e-05,-3.53947798430454e-05,-2.6673644242691807e-05,6.066577407182194e-05
-4.068602720508352e-05,6.357429356285138e-06,-1.920367867569439e-05,5.828473513247445e-05
-3.9312144508585334e-05,6.074260454624891e-05,-1.053285177476937e-05,5.958045585430227e-05
-3.679293877212331e-05,0.00010047956311609596,-8.114629054034594e-06,6.44562896923162e-05
-3.2127129088621587e-05,0.00012402381980791688,-5.1672750487341546e-06,6.7925539042335e-05
-2.6456782507011667e-05,0.0001243766164407134,7.40814073196816e-07,6.687254062853754e-05
-1.9848514057230204e-05,0.00011195657134521753,5.045969828643138e-06,6.1025166360195726e-05
-1.2747205801133532e-05,9.452590893488377e-05,6.033551471773535e-06,5.503936336026527e-05
-5.714305189030711e-06,8.257525769295171e-05,8.10691653896356e-06,4.8092064389493316e-05
-4.12211193179246e-06,8.589130447944626e-05,9.859161764325108e-06,3.568216925486922e-05
-5.084926669951528e-06,0.00011449035082478076,1.0962350643239915e-05,2.2636975700152107e-05
-5.555717962124618e-06,0.00014694190758746117,1.0242037205898669e-05,1.3095708709442988e-05
-6.801799827371724e-06,0.00013497850159183145,3.745350340977893e-06,7.946179721329827e-06
-1.1965421435888857e-05,7.792764517944306e-05,-7.51461811887566e-06,5.788331236544764e-06
-2.1947638742858544e-05,2.841929926944431e-05,-1.755598896124866e-05,6.1411001297528856e-06
-3.3249452826566994e-05,2.327236688870471e-05,-2.297331411682535e-05,1.1509756404848304e-05
-3.934019332518801e-05,3.627855039667338e-05,-2.404835686320439e-05,2.1423398720799014e-05
-3.910135637852363e-05,3.0402608899748884e-05,-2.277280691487249e-05,3.324721910757944e-05
-3.6857389204669744e-05,3.4903855521406513e-06,-2.2429718228522688e-05,4.7979574446799234e-05
-3.337491216370836e-05,-3.3475665986770764e-05,-2.4539825972169638e-05,6.450890214182436e-05
-3.217250923626125e-05,-8.966505993157625e-05,-2.6652132874005474e-05,7.728020136710256e-05
-3.6924324376741424e-05,-0.0001438054023310542,-2.3811553546693176e-05,8.554504893254489e-05
-4.645952139981091e-05,-0.0001532977184979245,-1.5765579519211315e-05,9.274304466089234e-05
-5.196814163355157e-05,-9.882019367069006e-05,-7.103663847374264e-06,9.767636947799474e-05
-4.770425221067853e-05,-5.585745384451002e-06,-3.6693427318823524e-06,9.548939124215394e-05
-3.853111047646962e-05,6.850791396573186e-05,-4.608394647220848e-06,8.497583621647209e-05
-3.337418820592575e-05,9.528081136522815e-05,-1.195831828226801e-05,7.741618901491165e-05
-3.1385170586872846e-05,8.337796316482127e-05,-1.921851435326971e-05,7.506409019697458e-05
-2.887381378968712e-05,4.0651393646840006e-05,-2.156443770218175e-05,7.241935236379504e-05
-2.302174652868416e-05,2.1340110833989456e-06,-2.279933869431261e-05,7.344547339016572e-05
-1.4664251466456335e-05,-8.214519766625017e-06,-2.1968184228171594e-05,7.428690150845796e-05
-9.778218554856721e-06,-2.0745617803186178e-05,-2.4534339900128543e-05,7.949209975777194e-05
-1.2095633792341687e-05,-5.417137799668126e-05,-2.7170433895662427e-05,8.549162885174155e-05
-2.08972687687492e-05,-0.00010627747542457655,-3.0171187972882763e-05,8.254192653112113e-05
-2.9474573238985613e-05,-0.00015875948884058744,-3.2451214792672545e-05,7.024094520602375e-05
-3.2357773307012394e-05,-0.00016918950132094324,-2.85863752651494e-05,6.037560888216831e-05
-2.871315155061893e-05,-0.0001253336522495374,-1.872608481789939e-05,6.07303372817114e-05
-2.1843892682227306e-05,-5.950464037596248e-05,-6.303636837401427e-06,6.457541167037562e-05
-1.7614411262911744e-05,-2.9332629765121965e-06,1.987194991670549e-06,7.003163773333654e-05
-1.593396154930815e-05,3.633772939792834e-05,4.970767804479692e-06,7.199277024483308e-05
-1.501981751061976e-05,5.953354047960602e-05,6.194973593665054e-06,6.972232222324237e-05
-1.6635611245874316e-05,6.930719973752275e-05,5.560877525567776e-06,6.654893513768911e-05
-2.112922811647877e-05,7.312067464226857e-05,2.83873600892548e-06,6.42145168967545e-05
-2.3128322936827317e-05,8.222753967856988e-05,-8.379346354558947e-07,6.32181836408563e-05
-2.115683673764579e-05,9.979636524803936e-05,-3.4418951599946013e-06,6.41866572550498e-05
-1.599490497028455e-05,0.00010831592226168141,-3.875703441735823e-06,6.61738813505508e-05
-1.00322913567652e-05,8.41518267407082e-05,-4.939994596497854e-06,6.661626684945077e-05
-1.0573432518867776e-05,3.53297837136779e-05,-6.1206451391626615e-06,6.338048842735589e-05
-1.8645732779987156e-05,5.1006027206312865e-06,-3.900491265085293e-06,5.9948553825961426e-05
-2.5342291337437928e-05,3.006677252415102e-05,1.939504500114708e-06,6.085576751502231e-05
-2.738239709287882e-05,8.833550964482129e-05,7.887596439104527e-06,6.600663618883118e-05
-2.9627790354425088e-05,0.0001150245952885598,7.804522283549886e-06,7.067043770803139e-05
-3.484878834569827e-05,9.761912951944396e-05,-1.9281342247268185e-06,7.05228085280396e-05
-3.8086498534539714e-05,6.874515383969992e-05,-9.25998028833419e-06,6.454849790316075e-05
-3.52204151568003e-05,3.873103196383454e-05,-8.945509762270376e-06,5.0784241466317326e-05
-3.105625728494488e-05,2.6624727979651652e-05,-4.396463282319019e-06,3.5962479159934446e-05
-2.868265801225789e-05,4.2401468817843124e-05,-6.209450589267362e-07,2.7555945052881725e-05
-2.3705111743765883e-05,5.3323095926316455e-05,2.468815409883973e-06,2.4195247533498332e-05
-1.6413330740761012e-05,3.54824514943175e-05,1.2751085705531295e-05,2.6265041014994495e-05
-1.385535597364651e-05,-1.4756573364138603e-05,3.05586690956261e-05,3.4273201890755445e-05
-9.362130185763817e-06,-5.11656871822197e-05,4.257314867572859e-05,4.6317825763253495e-05
-4.694629751611501e-06,-2.7572772523853928e-05,3.4280681575182825e-05,5.3588162700179964e-05
-8.241849172918592e-06,3.671226295409724e-05,9.619065167498775e-06,4.869559415965341e-05
-1.7623362509766594e-05,9.229158604284748e-05,-1.5010420611361042e-05,3.034276051039342e-05
-2.7042713554692455e-05,0.00011892290058312938,-2.9239961804705672e-05,7.086488039931282e-06
-3.212138108210638e-05,0.0001272922963835299,-3.281058889115229e-05,-2.7139044505020138e-06
-3.27557027048897e-05,0.0001305434707319364,-2.7968670110567473e-05,7.388419362541754e-06
-3.072879553656094e-05,0.0001264183083549142,-2.134536043740809e-05,3.221902443328872e-05
-3.0424236683757044e-05,0.00011460229143267497,-1.6471120034111664e-05,5.94920311414171e-05
-3.4637876524357125e-05,0.00010641104745445773,-1.1092605745943729e-05,7.929280400276184e-05
-3.996467057731934e-05,0.00010330074292141944,-6.441989626182476e-06,9.027501073433086e-05
-4.370265014586039e-05,9.494723781244829e-05,-9.199900887324475e-06,9.795485675567761e-05
-4.4166139559820294e-05,7.696881948504597e-05,-1.7077310985769145e-05,0.00010491341527085751
-3.9535967516712844e-05,6.683798710582778e-05,-2.301719541719649e-05,0.0001086756237782538
-3.028866194654256e-05,7.119712245184928e-05,-2.30385412578471e-05,0.00010679502156563103
-2.0816769392695278e-05,7.402144547086209e-05,-1.6180742022697814e-05,0.00010332056262996048
-1.319852344749961e-05,7.52101477701217e-05,-7.723464477749076e-06,9.73104833974503e-05
-7.008401553321164e-06,8.756958413869143e-05,-1.7649267647357192e-06,8.473007619613782e-05
-5.63738194614416e-06,9.467455674894154e-05,-3.7063907143419783e-07,7.593646296299994e-05
-1.102013629861176e-05,5.701788541045971e-05,-4.77321418657084e-06,7.174279016908258e-05
-2.0791667338926345e-05,-3.550484689185396e-05,-1.2748499102599453e-05,6.506557838292792e-05
-2.839645094354637e-05,-0.0001439450279576704,-1.9746481484617107e-05,5.675089414580725e-05
-3.452237797318958e-05,-0.00021627337264362723,-2.8500335247372277e-05,5.2714920457219705e-05
-4.41429037891794e-05,-0.0002128427877323702,-4.9560374463908374e-05,5.1748011173913255e-05
-4.701883881352842e-05,-0.0001456896134186536,-6.850242789369076e-05,5.06317155668512e-05
-3.617605398176238e-05,-7.155779894674197e-05,-6.628355185966939e-05,4.811261169379577e-05
-2.7500804208102636e-05,-3.094672865699977e-05,-5.096619133837521e-05,4.450264896149747e-05
-2.5815224944381043e-05,-1.4730396287632175e-05,-3.4671928005991504e-05,3.915566048817709e-05
-2.7567068173084408e-05,-1.6552456145291217e-05,-1.9477149180602282e-05,3.308616214781068e-05
-2.9887116397731006e-05,-2.5821407689363696e-05,-4.26963742938824e-06,3.590215783333406e-05
-3.165650196024217e-05,-2.921056693594437e-05,7.089027349138632e-06,4.167884253547527e-05
-3.321601252537221e-05,-1.6736059478716925e-05,1.5783682101755403e-05,4.528227509581484e-05
-3.2642103178659454e-05,9.831821444095112e-06,2.017628685280215e-05,4.960257138009183e-05
-2.98661325359717e-05,3.0333032555063255e-05,1.9390756278880872e-05,5.624466939480044e-05
-2.6123512725462206e-05,4.080155849806033e-05,1.4333558283396997e-05,6.413495430024341e-05
-2.554886850703042e-05,4.9669441068544984e-05,8.49456228024792e-06,6.892112287459895e-05
-2.7644267902360298e-05,5.6305005273316056e-05,4.49791286882828e-06,6.688408029731363e-05
-2.9120599720044993e-05,5.4379845096264035e-05,1.0791289923872682e-06,6.335759826470166e-05
-2.7896743631572463e-05,5.0950111472047865e-05,-8.93837864168745e-07,6.364723230944946e-05
-2.466119622113183e-05,5.334316665539518e-05,9.313502573604637e-07,6.488605868071318e-05
-2.017402948695235e-05,6.837202090537176e-05,5.679674359271303e-06,6.475322152255103e-05
-1.7478792869951576e-05,8.3284561696928e-05,8.282145245175343e-06,6.198120536282659e-05
-2.1108227883814834e-05,8.119714038912207e-05,6.364638920786092e-06,5.9148693253519014e-05
-3.157879109494388e-05,7.090863800840452e-05,4.162625828030286e-06,5.607186903944239e-05
-3.769424438360147e-05,6.349747127387673e-05,4.401539626996964e-06,5.5006021284498274e-05
-3.349077815073542e-05,5.9872210840694606e-05,5.648823389492463e-06,5.722196874557994e-05
-2.498894536984153e-05,7.700317655690014e-05,8.263056770374533e-06,5.815225085825659e-05
-2.128685991920065e-05,0.00010233839566353709,7.259286121552577e-06,5.707016316591762e-05
-2.4234472220996395e-05,0.00011295673903077841,-3.1084425700100837e-07,5.333807712304406e-05
-2.6398300178698264e-05,0.00011826059926534072,-7.742843990854453e-06,5.050722393207252e-05
-2.548502197896596e-05,0.0001101461675716564,-7.291492693184409e-06,5.304217847879045e-05
-1.9401632016524673e-05,6.405179010471329e-05,-6.650987415923737e-06,5.44897084182594e-05
-1.1614375580393244e-05,-2.676930307643488e-05,-9.261609193345066e-06,5.426903226180002e-05
-8.95800803846214e-06,-0.00014230734086595476,-1.422985405952204e-05,5.607219281955622e-05
-1.3024222425883636e-05,-0.00022175446792971343,-1.91806502698455e-05,5.690135003533214e-05
-2.0567813407978974e-05,-0.000220699846977368,-2.2658268790110014e-05,5.2091483667027205e-05
-2.5115230528172106e-05,-0.00016894713917281479,-2.519114423193969e-05,4.9684389523463324e-05
-2.4477081751683727e-05,-0.00011836658086394891,-2.427431354590226e-05,5.324048106558621e-05
-2.3053262339089997e-05,-8.482624252792448e-05,-2.131067230948247e-05,5.6724420574028045e-05
-2.5971945433411747e-05,-5.787759437225759e-05,-2.0265228158677928e-05,5.4318239563144743e-05
-3.157306491630152e-05,-2.1203086362220347e-05,-1.880438685475383e-05,4.761401942232624e-05
-3.5372180718695745e-05,2.1450583517435007e-05,-1.3096583643346094e-05,4.2350580770289525e-05
-3.425229078857228e-05,5.479851824929938e-05,-9.59147382673109e-06,4.0441482269670814e-05
-3.106195435975678e-05,7.434737199218944e-05,-1.2378008250379935e-05,4.1740091546671465e-05
